Time(s),SeqNum,Digital0,Digital1,Digital2,Digital3,Analog0,Analog1,Analog2,Analog3,Analog4,Analog5
0.0,0,1,1,1,1,511,1,507,506,0,0
0.001,1,1,1,1,1,511,1,510,509,0,0
0.002,2,1,1,1,1,511,1,511,507,0,0
0.003,3,1,1,1,1,513,1,507,509,0,0
0.004,4,1,1,1,1,511,1,511,510,0,0
0.005,5,1,1,1,1,511,3,511,510,0,0
0.006,6,1,1,1,1,511,1,512,506,0,0
0.007,7,1,1,1,1,510,1,515,508,0,0
0.008,8,1,1,1,1,511,0,513,508,0,0
0.009,9,1,1,1,1,512,1,510,507,0,0
0.01,10,1,1,1,1,512,1,513,508,0,0
0.011,11,1,1,1,1,511,1,504,506,0,0
0.012,12,1,1,1,1,512,1,506,510,0,0
0.013,13,1,1,1,1,513,3,510,509,0,0
0.014,14,1,1,1,1,512,1,507,508,0,0
0.015,15,1,1,1,1,511,1,505,508,0,0
0.016,0,1,1,1,1,511,0,503,509,0,0
0.017,1,1,1,1,1,512,1,503,509,0,0
0.018,2,1,1,1,1,513,1,510,508,0,0
0.019,3,1,1,1,1,511,1,512,507,0,0
0.02,4,1,1,1,1,511,1,513,510,0,0
0.021,5,1,1,1,1,510,3,515,509,0,0
0.022,6,1,1,1,1,512,1,513,509,0,0
0.023,7,1,1,1,1,511,1,514,507,0,0
0.024,8,1,1,1,1,509,1,518,506,0,0
0.025,9,1,1,1,1,511,1,511,507,0,0
0.026,10,1,1,1,1,512,1,513,507,0,0
0.027,11,1,1,1,1,510,1,512,508,0,0
0.028,12,1,1,1,1,512,1,507,509,0,0
0.029,13,1,1,1,1,510,3,510,510,0,0
0.03,14,1,1,1,1,511,1,518,509,0,0
0.031,15,1,1,1,1,513,1,507,510,0,0
0.032,0,1,1,1,1,513,1,506,508,0,0
0.033,1,1,1,1,1,511,1,512,505,0,0
0.034,2,1,1,1,1,511,1,511,507,0,0
0.035,3,1,1,1,1,511,1,509,508,0,0
0.036,4,1,1,1,1,512,1,507,508,0,0
0.037,5,1,1,1,1,512,3,510,507,0,0
0.038,6,1,1,1,1,512,1,507,507,0,0
0.039,7,1,1,1,1,511,1,506,509,0,0
0.04,8,1,1,1,1,510,1,510,510,0,0
0.041,9,1,1,1,1,509,1,514,510,0,0
0.042,10,1,1,1,1,511,1,510,507,0,0
0.043,11,1,1,1,1,511,1,511,508,0,0
0.044,12,1,1,1,1,513,1,511,511,0,0
0.045,13,1,1,1,1,512,2,508,510,0,0
0.046,14,1,1,1,1,510,1,510,508,0,0
0.047,15,1,1,1,1,512,1,511,509,0,0
0.048,0,1,1,1,1,512,1,515,508,0,0
0.049,1,1,1,1,1,512,1,513,508,0,0
0.05,2,1,1,1,1,511,1,514,508,0,0
0.051,3,1,1,1,1,511,1,506,507,0,0
0.052,4,1,1,1,1,511,1,506,508,0,0
0.053,5,1,1,1,1,512,2,504,510,0,0
0.054,6,1,1,1,1,511,1,505,510,0,0
0.055,7,1,1,1,1,511,1,506,510,0,0
0.056,8,1,1,1,1,511,1,508,511,0,0
0.057,9,1,1,1,1,512,1,511,509,0,0
0.058,10,1,1,1,1,511,1,516,508,0,0
0.059,11,1,1,1,1,512,1,522,509,0,0
0.06,12,1,1,1,1,512,1,522,508,0,0
0.061,13,1,1,1,1,512,2,517,506,0,0
0.062,14,1,1,1,1,512,1,510,505,0,0
0.063,15,1,1,1,1,511,1,511,509,0,0
0.064,0,1,1,1,1,511,1,511,510,0,0
0.065,1,1,1,1,1,513,1,504,510,0,0
0.066,2,1,1,1,1,511,1,506,508,0,0
0.067,3,1,1,1,1,510,1,508,511,0,0
0.068,4,1,1,1,1,511,1,510,509,0,0
0.069,5,1,1,1,1,511,3,508,509,0,0
0.07,6,1,1,1,1,512,1,508,508,0,0
0.071,7,1,1,1,1,513,1,512,508,0,0
0.072,8,1,1,1,1,511,1,514,509,0,0
0.073,9,1,1,1,1,511,1,514,509,0,0
0.074,10,1,1,1,1,511,1,515,508,0,0
0.075,11,1,1,1,1,512,1,517,508,0,0
0.076,12,1,1,1,1,512,1,511,509,0,0
0.077,13,1,1,1,1,511,3,504,508,0,0
0.078,14,1,1,1,1,511,1,503,509,0,0
0.079,15,1,1,1,1,512,1,504,508,0,0
0.08,0,1,1,1,1,512,1,504,510,0,0
0.081,1,1,1,1,1,511,1,507,510,0,0
0.082,2,1,1,1,1,510,1,504,507,0,0
0.083,3,1,1,1,1,511,1,508,510,0,0
0.084,4,1,1,1,1,511,1,506,510,0,0
0.085,5,1,1,1,1,510,3,508,508,0,0
0.086,6,1,1,1,1,513,1,510,510,0,0
0.087,7,1,1,1,1,512,1,509,508,0,0
0.088,8,1,1,1,1,512,1,512,508,0,0
0.089,9,1,1,1,1,511,1,510,507,0,0
0.09,10,1,1,1,1,511,1,511,507,0,0
0.091,11,1,1,1,1,513,1,509,507,0,0
0.092,12,1,1,1,1,510,1,508,509,0,0
0.093,13,1,1,1,1,512,3,508,507,0,0
0.094,14,1,1,1,1,513,1,512,508,0,0
0.095,15,1,1,1,1,510,1,514,509,0,0
0.096,0,1,1,1,1,513,0,512,511,0,0
0.097,1,1,1,1,1,513,1,509,508,0,0
0.098,2,1,1,1,1,511,1,509,508,0,0
0.099,3,1,1,1,1,512,1,506,508,0,0
0.1,4,1,1,1,1,508,1,511,508,0,0
0.101,5,1,1,1,1,509,3,514,506,0,0
0.102,6,1,1,1,1,512,1,512,507,0,0
0.103,7,1,1,1,1,512,1,510,507,0,0
0.104,8,1,1,1,1,512,0,512,508,0,0
0.105,9,1,1,1,1,512,1,510,511,0,0
0.106,10,1,1,1,1,511,1,505,507,0,0
0.107,11,1,1,1,1,513,1,515,510,0,0
0.108,12,1,1,1,1,510,1,515,511,0,0
0.109,13,1,1,1,1,511,3,507,508,0,0
0.11,14,1,1,1,1,511,1,510,508,0,0
0.111,15,1,1,1,1,510,1,515,508,0,0
0.112,0,1,1,1,1,512,1,513,508,0,0
0.113,1,1,1,1,1,510,1,509,509,0,0
0.114,2,1,1,1,1,512,1,509,509,0,0
0.115,3,1,1,1,1,511,1,507,508,0,0
0.116,4,1,1,1,1,512,1,511,510,0,0
0.117,5,1,1,1,1,513,3,513,508,0,0
0.118,6,1,1,1,1,512,1,513,509,0,0
0.119,7,1,1,1,1,510,1,510,508,0,0
0.12,8,1,1,1,1,514,1,507,510,0,0
0.121,9,1,1,1,1,514,1,508,509,0,0
0.122,10,1,1,1,1,510,1,504,507,0,0
0.123,11,1,1,1,1,510,1,509,509,0,0
0.124,12,1,1,1,1,510,1,509,508,0,0
0.125,13,1,1,1,1,511,3,508,509,0,0
0.126,14,1,1,1,1,512,1,505,507,0,0
0.127,15,1,1,1,1,511,1,507,508,0,0
0.128,0,1,1,1,1,512,1,510,507,0,0
0.129,1,1,1,1,1,513,1,508,508,0,0
0.13,2,1,1,1,1,512,1,515,508,0,0
0.131,3,1,1,1,1,510,1,518,504,0,0
0.132,4,1,1,1,1,510,1,515,507,0,0
0.133,5,1,1,1,1,510,3,515,509,0,0
0.134,6,1,1,1,1,511,1,519,508,0,0
0.135,7,1,1,1,1,512,1,513,509,0,0
0.136,8,1,1,1,1,512,1,510,508,0,0
0.137,9,1,1,1,1,512,1,510,512,0,0
0.138,10,1,1,1,1,515,1,507,508,0,0
0.139,11,1,1,1,1,511,0,513,508,0,0
0.14,12,1,1,1,1,512,1,514,508,0,0
0.141,13,1,1,1,1,512,3,515,509,0,0
0.142,14,1,1,1,1,510,1,513,509,0,0
0.143,15,1,1,1,1,511,1,513,509,0,0
0.144,0,1,1,1,1,511,1,513,508,0,0
0.145,1,1,1,1,1,511,1,502,507,0,0
0.146,2,1,1,1,1,510,1,507,509,0,0
0.147,3,1,1,1,1,510,0,511,508,0,0
0.148,4,1,1,1,1,513,1,509,508,0,0
0.149,5,1,1,1,1,512,3,507,508,0,0
0.15,6,1,1,1,1,512,1,505,507,0,0
0.151,7,1,1,1,1,511,1,508,509,0,0
0.152,8,1,1,1,1,513,1,515,508,0,0
0.153,9,1,1,1,1,512,1,505,508,0,0
0.154,10,1,1,1,1,512,1,505,511,0,0
0.155,11,1,1,1,1,512,1,510,509,0,0
0.156,12,1,1,1,1,510,1,515,511,0,0
0.157,13,1,1,1,1,512,1,513,508,0,0
0.158,14,1,1,1,1,512,1,505,506,0,0
0.159,15,1,1,1,1,511,1,508,507,0,0
0.16,0,1,1,1,1,511,1,514,508,0,0
0.161,1,1,1,1,1,510,1,508,508,0,0
0.162,2,1,1,1,1,513,1,509,510,0,0
0.163,3,1,1,1,1,511,1,512,510,0,0
0.164,4,1,1,1,1,513,1,513,511,0,0
0.165,5,1,1,1,1,511,1,518,509,0,0
0.166,6,1,1,1,1,510,1,515,510,0,0
0.167,7,1,1,1,1,511,1,512,509,0,0
0.168,8,1,1,1,1,510,1,508,508,0,0
0.169,9,1,1,1,1,512,1,511,508,0,0
0.17,10,1,1,1,1,511,1,508,508,0,0
0.171,11,1,1,1,1,509,1,503,508,0,0
0.172,12,1,1,1,1,511,1,518,507,0,0
0.173,13,1,1,1,1,510,1,517,509,0,0
0.174,14,1,1,1,1,512,1,512,508,0,0
0.175,15,1,1,1,1,512,1,512,509,0,0
0.176,0,1,1,1,1,513,1,508,508,0,0
0.177,1,1,1,1,1,512,1,507,507,0,0
0.178,2,1,1,1,1,512,1,499,506,0,0
0.179,3,1,1,1,1,512,0,502,510,0,0
0.18,4,1,1,1,1,512,1,507,509,0,0
0.181,5,1,1,1,1,512,3,507,508,0,0
0.182,6,1,1,1,1,511,1,504,507,0,0
0.183,7,1,1,1,1,513,1,504,509,0,0
0.184,8,1,1,1,1,513,1,504,507,0,0
0.185,9,1,1,1,1,511,1,508,507,0,0
0.186,10,1,1,1,1,512,1,515,508,0,0
0.187,11,1,1,1,1,512,0,515,510,0,0
0.188,12,1,1,1,1,512,1,507,509,0,0
0.189,13,1,1,1,1,511,3,509,510,0,0
0.19,14,1,1,1,1,512,1,510,507,0,0
0.191,15,1,1,1,1,512,1,513,508,0,0
0.192,0,1,1,1,1,511,1,513,508,0,0
0.193,1,1,1,1,1,511,1,512,508,0,0
0.194,2,1,1,1,1,510,1,511,508,0,0
0.195,3,1,1,1,1,510,1,516,509,0,0
0.196,4,1,1,1,1,511,1,520,508,0,0
0.197,5,1,1,1,1,511,3,515,508,0,0
0.198,6,1,1,1,1,511,1,513,508,0,0
0.199,7,1,1,1,1,513,1,512,509,0,0
0.2,8,1,1,1,1,511,1,511,509,0,0
0.201,9,1,1,1,1,512,1,508,508,0,0
0.202,10,1,1,1,1,511,1,512,509,0,0
0.203,11,1,1,1,1,508,1,513,508,0,0
0.204,12,1,1,1,1,512,1,514,510,0,0
0.205,13,1,1,1,1,512,3,509,506,0,0
0.206,14,1,1,1,1,512,1,510,509,0,0
0.207,15,1,1,1,1,512,1,513,508,0,0
0.208,0,1,1,1,1,511,1,515,510,0,0
0.209,1,1,1,1,1,512,1,515,508,0,0
0.21,2,1,1,1,1,511,1,515,507,0,0
0.211,3,1,1,1,1,510,1,517,509,0,0
0.212,4,1,1,1,1,510,1,510,510,0,0
0.213,5,1,1,1,1,512,3,512,508,0,0
0.214,6,1,1,1,1,513,1,506,508,0,0
0.215,7,1,1,1,1,512,1,505,508,0,0
0.216,8,1,1,1,1,512,1,503,508,0,0
0.217,9,1,1,1,1,512,1,500,508,0,0
0.218,10,1,1,1,1,512,1,501,507,0,0
0.219,11,1,1,1,1,511,1,505,507,0,0
0.22,12,1,1,1,1,513,1,508,508,0,0
0.221,13,1,1,1,1,513,3,509,508,0,0
0.222,14,1,1,1,1,513,1,512,509,0,0
0.223,15,1,1,1,1,511,1,516,508,0,0
0.224,0,1,1,1,1,512,0,514,508,0,0
0.225,1,1,1,1,1,509,1,519,507,0,0
0.226,2,1,1,1,1,511,1,516,510,0,0
0.227,3,1,1,1,1,510,1,519,511,0,0
0.228,4,1,1,1,1,512,1,514,508,0,0
0.229,5,1,1,1,1,513,3,510,508,0,0
0.23,6,1,1,1,1,514,1,508,507,0,0
0.231,7,1,1,1,1,512,1,509,508,0,0
0.232,8,1,1,1,1,512,0,504,508,0,0
0.233,9,1,1,1,1,510,1,507,509,0,0
0.234,10,1,1,1,1,511,1,510,509,0,0
0.235,11,1,1,1,1,511,1,508,508,0,0
0.236,12,1,1,1,1,511,1,506,509,0,0
0.237,13,1,1,1,1,513,3,506,508,0,0
0.238,14,1,1,1,1,511,1,506,509,0,0
0.239,15,1,1,1,1,511,1,510,509,0,0
0.24,0,1,1,1,1,511,0,517,507,0,0
0.241,1,1,1,1,1,511,1,517,510,0,0
0.242,2,1,1,1,1,509,1,513,507,0,0
0.243,3,1,1,1,1,512,1,503,509,0,0
0.244,4,1,1,1,1,513,1,505,508,0,0
0.245,5,1,1,1,1,514,3,509,509,0,0
0.246,6,1,1,1,1,514,1,507,508,0,0
0.247,7,1,1,1,1,511,1,506,509,0,0
0.248,8,1,1,1,1,509,1,511,507,0,0
0.249,9,1,1,1,1,512,1,508,509,0,0
0.25,10,1,1,1,1,511,1,507,508,0,0
0.251,11,1,1,1,1,511,1,509,509,0,0
0.252,12,1,1,1,1,510,1,508,509,0,0
0.253,13,1,1,1,1,510,3,509,509,0,0
0.254,14,1,1,1,1,512,1,511,507,0,0
0.255,15,1,1,1,1,513,1,515,508,0,0
0.256,0,1,1,1,1,511,1,515,507,0,0
0.257,1,1,1,1,1,513,1,519,505,0,0
0.258,2,1,1,1,1,511,1,514,507,0,0
0.259,3,1,1,1,1,514,1,508,508,0,0
0.26,4,1,1,1,1,511,1,513,508,0,0
0.261,5,1,1,1,1,511,3,509,510,0,0
0.262,6,1,1,1,1,511,1,512,508,0,0
0.263,7,1,1,1,1,510,1,514,509,0,0
0.264,8,1,1,1,1,512,1,515,510,0,0
0.265,9,1,1,1,1,513,1,510,512,0,0
0.266,10,1,1,1,1,511,1,510,510,0,0
0.267,11,1,1,1,1,512,1,507,507,0,0
0.268,12,1,1,1,1,511,1,506,508,0,0
0.269,13,1,1,1,1,511,2,505,506,0,0
0.27,14,1,1,1,1,511,1,506,508,0,0
0.271,15,1,1,1,1,512,1,504,508,0,0
0.272,0,1,1,1,1,512,1,507,507,0,0
0.273,1,1,1,1,1,512,1,510,508,0,0
0.274,2,1,1,1,1,511,1,506,508,0,0
0.275,3,1,1,1,1,512,1,508,509,0,0
0.276,4,1,1,1,1,512,1,511,508,0,0
0.277,5,1,1,1,1,511,2,512,507,0,0
0.278,6,1,1,1,1,511,1,518,511,0,0
0.279,7,1,1,1,1,511,1,513,509,0,0
0.28,8,1,1,1,1,512,1,515,507,0,0
0.281,9,1,1,1,1,511,1,509,509,0,0
0.282,10,1,1,1,1,512,1,511,510,0,0
0.283,11,1,1,1,1,511,1,514,509,0,0
0.284,12,1,1,1,1,511,1,510,510,0,0
0.285,13,1,1,1,1,512,2,510,509,0,0
0.286,14,1,1,1,1,511,1,512,510,0,0
0.287,15,1,1,1,1,509,1,517,508,0,0
0.288,0,1,1,1,1,510,1,516,508,0,0
0.289,1,1,1,1,1,510,1,515,507,0,0
0.29,2,1,1,1,1,510,1,510,508,0,0
0.291,3,1,1,1,1,511,1,508,510,0,0
0.292,4,1,1,1,1,513,1,519,506,0,0
0.293,5,1,1,1,1,511,3,514,508,0,0
0.294,6,1,1,1,1,512,1,509,507,0,0
0.295,7,1,1,1,1,511,1,503,507,0,0
0.296,8,1,1,1,1,511,1,504,508,0,0
0.297,9,1,1,1,1,511,1,507,508,0,0
0.298,10,1,1,1,1,513,1,512,509,0,0
0.299,11,1,1,1,1,511,1,517,508,0,0
0.3,12,1,1,1,1,511,1,512,510,0,0
0.301,13,1,1,1,1,514,3,513,508,0,0
0.302,14,1,1,1,1,513,1,510,510,0,0
0.303,15,1,1,1,1,513,1,508,508,0,0
0.304,0,1,1,1,1,512,1,511,506,0,0
0.305,1,1,1,1,1,512,1,508,508,0,0
0.306,2,1,1,1,1,511,1,508,508,0,0
0.307,3,1,1,1,1,510,1,510,508,0,0
0.308,4,1,1,1,1,513,1,509,510,0,0
0.309,5,1,1,1,1,511,3,512,508,0,0
0.31,6,1,1,1,1,510,1,515,509,0,0
0.311,7,1,1,1,1,511,1,508,508,0,0
0.312,8,1,1,1,1,511,0,509,508,0,0
0.313,9,1,1,1,1,513,1,511,508,0,0
0.314,10,1,1,1,1,511,1,515,509,0,0
0.315,11,1,1,1,1,512,1,512,510,0,0
0.316,12,1,1,1,1,512,1,508,507,0,0
0.317,13,1,1,1,1,511,3,509,509,0,0
0.318,14,1,1,1,1,512,1,507,511,0,0
0.319,15,1,1,1,1,511,1,505,509,0,0
0.32,0,1,1,1,1,510,0,504,510,0,0
0.321,1,1,1,1,1,512,1,507,508,0,0
0.322,2,1,1,1,1,511,1,509,506,0,0
0.323,3,1,1,1,1,510,1,504,507,0,0
0.324,4,1,1,1,1,510,1,508,509,0,0
0.325,5,1,1,1,1,510,3,510,511,0,0
0.326,6,1,1,1,1,513,1,508,510,0,0
0.327,7,1,1,1,1,512,1,511,510,0,0
0.328,8,1,1,1,1,512,0,508,506,0,0
0.329,9,1,1,1,1,512,1,507,507,0,0
0.33,10,1,1,1,1,511,1,508,508,0,0
0.331,11,1,1,1,1,511,1,511,508,0,0
0.332,12,1,1,1,1,512,1,515,510,0,0
0.333,13,1,1,1,1,512,3,515,510,0,0
0.334,14,1,1,1,1,509,1,512,511,0,0
0.335,15,1,1,1,1,510,1,509,507,0,0
0.336,0,1,1,1,1,512,1,509,509,0,0
0.337,1,1,1,1,1,513,1,513,508,0,0
0.338,2,1,1,1,1,511,1,511,509,0,0
0.339,3,1,1,1,1,513,1,515,508,0,0
0.34,4,1,1,1,1,513,1,512,507,0,0
0.341,5,1,1,1,1,512,3,509,508,0,0
0.342,6,1,1,1,1,510,1,512,507,0,0
0.343,7,1,1,1,1,511,1,509,509,0,0
0.344,8,1,1,1,1,511,1,509,509,0,0
0.345,9,1,1,1,1,510,1,515,507,0,0
0.346,10,1,1,1,1,511,1,513,507,0,0
0.347,11,1,1,1,1,512,1,507,512,0,0
0.348,12,1,1,1,1,512,1,511,509,0,0
0.349,13,1,1,1,1,512,3,506,507,0,0
0.35,14,1,1,1,1,512,1,506,508,0,0
0.351,15,1,1,1,1,511,1,510,511,0,0
0.352,0,1,1,1,1,513,1,508,507,0,0
0.353,1,1,1,1,1,512,1,507,507,0,0
0.354,2,1,1,1,1,512,1,513,507,0,0
0.355,3,1,1,1,1,511,1,513,510,0,0
0.356,4,1,1,1,1,511,1,512,509,0,0
0.357,5,1,1,1,1,512,3,517,511,0,0
0.358,6,1,1,1,1,512,1,520,510,0,0
0.359,7,1,1,1,1,513,1,516,510,0,0
0.36,8,1,1,1,1,511,1,512,507,0,0
0.361,9,1,1,1,1,511,1,509,508,0,0
0.362,10,1,1,1,1,512,1,506,511,0,0
0.363,11,1,1,1,1,513,1,508,508,0,0
0.364,12,1,1,1,1,512,1,508,510,0,0
0.365,13,1,1,1,1,511,3,509,508,0,0
0.366,14,1,1,1,1,511,1,509,508,0,0
0.367,15,1,1,1,1,511,1,509,508,0,0
0.368,0,1,1,1,1,510,1,500,509,0,0
0.369,1,1,1,1,1,511,1,501,507,0,0
0.37,2,1,1,1,1,512,1,503,506,0,0
0.371,3,1,1,1,1,512,1,513,507,0,0
0.372,4,1,1,1,1,513,1,514,507,0,0
0.373,5,1,1,1,1,512,1,512,508,0,0
0.374,6,1,1,1,1,510,1,512,508,0,0
0.375,7,1,1,1,1,511,1,512,510,0,0
0.376,8,1,1,1,1,512,1,518,507,0,0
0.377,9,1,1,1,1,511,1,513,508,0,0
0.378,10,1,1,1,1,511,1,519,507,0,0
0.379,11,1,1,1,1,510,1,515,508,0,0
0.38,12,1,1,1,1,512,1,520,509,0,0
0.381,13,1,1,1,1,513,1,510,509,0,0
0.382,14,1,1,1,1,513,1,512,509,0,0
0.383,15,1,1,1,1,511,1,505,508,0,0
0.384,0,1,1,1,1,511,1,505,510,0,0
0.385,1,1,1,1,1,511,1,507,509,0,0
0.386,2,1,1,1,1,511,1,512,509,0,0
0.387,3,1,1,1,1,512,1,509,509,0,0
0.388,4,1,1,1,1,511,1,512,511,0,0
0.389,5,1,1,1,1,510,1,507,507,0,0
0.39,6,1,1,1,1,510,1,510,508,0,0
0.391,7,1,1,1,1,511,1,516,505,0,0
0.392,8,1,1,1,1,511,1,508,507,0,0
0.393,9,1,1,1,1,512,1,507,509,0,0
0.394,10,1,1,1,1,512,1,508,511,0,0
0.395,11,1,1,1,1,512,1,514,508,0,0
0.396,12,1,1,1,1,512,1,520,509,0,0
0.397,13,1,1,1,1,509,3,512,509,0,0
0.398,14,1,1,1,1,511,1,506,508,0,0
0.399,15,1,1,1,1,511,1,503,508,0,0
0.4,0,1,1,1,1,510,1,507,508,0,0
0.401,1,1,1,1,1,510,1,510,507,0,0
0.402,2,1,1,1,1,512,1,511,507,0,0
0.403,3,1,1,1,1,511,0,508,510,0,0
0.404,4,1,1,1,1,510,1,506,508,0,0
0.405,5,1,1,1,1,511,3,510,509,0,0
0.406,6,1,1,1,1,513,1,515,508,0,0
0.407,7,1,1,1,1,512,1,512,505,0,0
0.408,8,1,1,1,1,512,1,509,509,0,0
0.409,9,1,1,1,1,513,1,510,508,0,0
0.41,10,1,1,1,1,511,1,510,510,0,0
0.411,11,1,1,1,1,511,0,511,508,0,0
0.412,12,1,1,1,1,512,1,507,510,0,0
0.413,13,1,1,1,1,512,3,501,507,0,0
0.414,14,1,1,1,1,511,1,505,510,0,0
0.415,15,1,1,1,1,511,1,511,508,0,0
0.416,0,1,1,1,1,511,1,511,508,0,0
0.417,1,1,1,1,1,512,1,506,508,0,0
0.418,2,1,1,1,1,513,1,516,508,0,0
0.419,3,1,1,1,1,512,1,514,508,0,0
0.42,4,1,1,1,1,511,1,519,510,0,0
0.421,5,1,1,1,1,511,3,513,508,0,0
0.422,6,1,1,1,1,512,1,515,508,0,0
0.423,7,1,1,1,1,511,1,509,507,0,0
0.424,8,1,1,1,1,511,1,511,508,0,0
0.425,9,1,1,1,1,511,1,511,508,0,0
0.426,10,1,1,1,1,511,1,501,510,0,0
0.427,11,1,1,1,1,513,1,504,511,0,0
0.428,12,1,1,1,1,513,1,507,511,0,0
0.429,13,1,1,1,1,512,3,507,509,0,0
0.43,14,1,1,1,1,512,1,504,508,0,0
0.431,15,1,1,1,1,511,1,507,509,0,0
0.432,0,1,1,1,1,511,1,510,511,0,0
0.433,1,1,1,1,1,512,1,514,509,0,0
0.434,2,1,1,1,1,511,1,511,507,0,0
0.435,3,1,1,1,1,509,1,510,508,0,0
0.436,4,1,1,1,1,512,1,513,507,0,0
0.437,5,1,1,1,1,510,3,510,507,0,0
0.438,6,1,1,1,1,511,1,508,509,0,0
0.439,7,1,1,1,1,511,1,515,508,0,0
0.44,8,1,1,1,1,513,0,512,509,0,0
0.441,9,1,1,1,1,513,1,517,510,0,0
0.442,10,1,1,1,1,512,1,517,508,0,0
0.443,11,1,1,1,1,512,1,513,510,0,0
0.444,12,1,1,1,1,511,1,514,507,0,0
0.445,13,1,1,1,1,512,3,515,509,0,0
0.446,14,1,1,1,1,512,1,516,509,0,0
0.447,15,1,1,1,1,511,1,511,509,0,0
0.448,0,1,1,1,1,511,0,511,509,0,0
0.449,1,1,1,1,1,511,1,514,507,0,0
0.45,2,1,1,1,1,511,1,506,507,0,0
0.451,3,1,1,1,1,511,1,507,507,0,0
0.452,4,1,1,1,1,510,1,505,507,0,0
0.453,5,1,1,1,1,511,3,501,509,0,0
0.454,6,1,1,1,1,513,1,502,508,0,0
0.455,7,1,1,1,1,511,1,507,509,0,0
0.456,8,1,1,1,1,512,0,511,509,0,0
0.457,9,1,1,1,1,511,1,510,509,0,0
0.458,10,1,1,1,1,511,1,510,508,0,0
0.459,11,1,1,1,1,510,1,508,510,0,0
0.46,12,1,1,1,1,510,1,511,508,0,0
0.461,13,1,1,1,1,510,3,507,507,0,0
0.462,14,1,1,1,1,510,1,507,509,0,0
0.463,15,1,1,1,1,511,1,512,508,0,0
0.464,0,1,1,1,1,511,1,513,508,0,0
0.465,1,1,1,1,1,514,1,509,509,0,0
0.466,2,1,1,1,1,512,1,510,510,0,0
0.467,3,1,1,1,1,514,1,515,507,0,0
0.468,4,1,1,1,1,512,1,518,508,0,0
0.469,5,1,1,1,1,513,3,513,506,0,0
0.47,6,1,1,1,1,512,1,509,507,0,0
0.471,7,1,1,1,1,512,1,512,508,0,0
0.472,8,1,1,1,1,512,1,513,509,0,0
0.473,9,1,1,1,1,512,1,512,506,0,0
0.474,10,1,1,1,1,511,1,512,509,0,0
0.475,11,1,1,1,1,512,1,514,509,0,0
0.476,12,1,1,1,1,511,1,518,508,0,0
0.477,13,1,1,1,1,512,3,519,510,0,0
0.478,14,1,1,1,1,513,1,519,508,0,0
0.479,15,1,1,1,1,511,1,512,508,0,0
0.48,0,1,1,1,1,513,1,513,509,0,0
0.481,1,1,1,1,1,511,1,510,508,0,0
0.482,2,1,1,1,1,510,1,501,508,0,0
0.483,3,1,1,1,1,511,1,501,507,0,0
0.484,4,1,1,1,1,510,1,504,511,0,0
0.485,5,1,1,1,1,511,2,510,509,0,0
0.486,6,1,1,1,1,512,1,508,508,0,0
0.487,7,1,1,1,1,512,1,507,509,0,0
0.488,8,1,1,1,1,512,1,510,510,0,0
0.489,9,1,1,1,1,512,1,507,509,0,0
0.49,10,1,1,1,1,511,1,510,508,0,0
0.491,11,1,1,1,1,509,1,510,508,0,0
0.492,12,1,1,1,1,511,1,508,508,0,0
0.493,13,1,1,1,1,512,2,515,507,0,0
0.494,14,1,1,1,1,513,1,512,507,0,0
0.495,15,1,1,1,1,510,1,510,510,0,0
0.496,0,1,1,1,1,511,1,515,509,0,0
0.497,1,1,1,1,1,511,1,509,507,0,0
0.498,2,1,1,1,1,512,1,516,510,0,0
0.499,3,1,1,1,1,512,1,512,507,0,0
0.5,4,1,1,1,1,512,1,509,507,0,0
0.501,5,1,1,1,1,510,2,512,507,0,0
0.502,6,1,1,1,1,511,1,508,507,0,0
0.503,7,1,1,1,1,510,1,508,509,0,0
0.504,8,1,1,1,1,511,1,510,510,0,0
0.505,9,1,1,1,1,511,1,512,509,0,0
0.506,10,1,1,1,1,514,1,513,509,0,0
0.507,11,1,1,1,1,511,1,515,510,0,0
0.508,12,1,1,1,1,511,1,512,510,0,0
0.509,13,1,1,1,1,511,3,509,508,0,0
0.51,14,1,1,1,1,512,1,514,509,0,0
0.511,15,1,1,1,1,512,1,515,508,0,0
0.512,0,1,1,1,1,510,1,513,511,0,0
0.513,1,1,1,1,1,510,1,506,507,0,0
0.514,2,1,1,1,1,511,1,507,509,0,0
0.515,3,1,1,1,1,512,1,508,508,0,0
0.516,4,1,1,1,1,511,1,509,512,0,0
0.517,5,1,1,1,1,513,3,508,510,0,0
0.518,6,1,1,1,1,511,1,505,509,0,0
0.519,7,1,1,1,1,512,1,505,507,0,0
0.52,8,1,1,1,1,511,1,505,508,0,0
0.521,9,1,1,1,1,511,1,511,508,0,0
0.522,10,1,1,1,1,510,1,512,510,0,0
0.523,11,1,1,1,1,511,1,511,508,0,0
0.524,12,1,1,1,1,511,1,510,506,0,0
0.525,13,1,1,1,1,512,3,519,505,0,0
0.526,14,1,1,1,1,511,1,514,506,0,0
0.527,15,1,1,1,1,512,1,519,508,0,0
0.528,0,1,1,1,1,512,0,514,510,0,0
0.529,1,1,1,1,1,511,1,515,512,0,0
0.53,2,1,1,1,1,512,1,510,507,0,0
0.531,3,1,1,1,1,512,1,510,510,0,0
0.532,4,1,1,1,1,511,1,514,510,0,0
0.533,5,1,1,1,1,512,3,506,508,0,0
0.534,6,1,1,1,1,511,1,503,507,0,0
0.535,7,1,1,1,1,512,1,507,510,0,0
0.536,8,1,1,1,1,512,0,510,509,0,0
0.537,9,1,1,1,1,510,1,511,509,0,0
0.538,10,1,1,1,1,510,1,507,506,0,0
0.539,11,1,1,1,1,509,1,511,508,0,0
0.54,12,1,1,1,1,512,1,515,507,0,0
0.541,13,1,1,1,1,512,3,515,506,0,0
0.542,14,1,1,1,1,511,1,510,508,0,0
0.543,15,1,1,1,1,513,1,506,510,0,0
0.544,0,1,1,1,1,512,0,507,510,0,0
0.545,1,1,1,1,1,511,1,510,509,0,0
0.546,2,1,1,1,1,511,1,508,509,0,0
0.547,3,1,1,1,1,510,1,503,510,0,0
0.548,4,1,1,1,1,512,1,511,509,0,0
0.549,5,1,1,1,1,512,3,510,509,0,0
0.55,6,1,1,1,1,511,1,514,508,0,0
0.551,7,1,1,1,1,512,1,517,510,0,0
0.552,8,1,1,1,1,511,1,515,509,0,0
0.553,9,1,1,1,1,512,1,514,508,0,0
0.554,10,1,1,1,1,511,1,508,508,0,0
0.555,11,1,1,1,1,513,1,509,508,0,0
0.556,12,1,1,1,1,511,1,514,509,0,0
0.557,13,1,1,1,1,513,3,516,508,0,0
0.558,14,1,1,1,1,512,1,507,508,0,0
0.559,15,1,1,1,1,512,1,504,509,0,0
0.56,0,1,1,1,1,509,1,507,506,0,0
0.561,1,1,1,1,1,509,1,504,508,0,0
0.562,2,1,1,1,1,512,1,509,509,0,0
0.563,3,1,1,1,1,512,1,508,509,0,0
0.564,4,1,1,1,1,510,1,513,508,0,0
0.565,5,1,1,1,1,513,3,515,508,0,0
0.566,6,1,1,1,1,512,1,514,506,0,0
0.567,7,1,1,1,1,512,1,516,507,0,0
0.568,8,1,1,1,1,512,1,511,509,0,0
0.569,9,1,1,1,1,511,1,513,508,0,0
0.57,10,1,1,1,1,511,1,512,508,0,0
0.571,11,1,1,1,1,510,0,510,510,0,0
0.572,12,1,1,1,1,511,1,512,509,0,0
0.573,13,1,1,1,1,512,3,514,508,0,0
0.574,14,1,1,1,1,512,1,510,508,0,0
0.575,15,1,1,1,1,511,1,512,510,0,0
0.576,0,1,1,1,1,512,1,514,509,0,0
0.577,1,1,1,1,1,511,1,508,509,0,0
0.578,2,1,1,1,1,511,1,508,508,0,0
0.579,3,1,1,1,1,511,1,512,508,0,0
0.58,4,1,1,1,1,511,1,502,508,0,0
0.581,5,1,1,1,1,513,3,507,510,0,0
0.582,6,1,1,1,1,510,1,505,508,0,0
0.583,7,1,1,1,1,511,1,506,504,0,0
0.584,8,1,1,1,1,513,1,505,508,0,0
0.585,9,1,1,1,1,511,1,505,508,0,0
0.586,10,1,1,1,1,511,1,499,508,0,0
0.587,11,1,1,1,1,512,0,504,508,0,0
0.588,12,1,1,1,1,512,1,497,510,0,0
0.589,13,1,1,1,1,513,3,511,507,0,0
0.59,14,1,1,1,1,512,1,514,508,0,0
0.591,15,1,1,1,1,511,1,519,510,0,0
0.592,0,1,1,1,1,511,1,519,510,0,0
0.593,1,1,1,1,1,511,1,518,507,0,0
0.594,2,1,1,1,1,511,1,514,509,0,0
0.595,3,1,1,1,1,512,1,515,510,0,0
0.596,4,1,1,1,1,511,1,508,509,0,0
0.597,5,1,1,1,1,512,1,510,511,0,0
0.598,6,1,1,1,1,511,1,506,509,0,0
0.599,7,1,1,1,1,511,1,504,509,0,0
0.6,8,1,1,1,1,509,1,505,509,0,0
0.601,9,1,1,1,1,513,1,505,508,0,0
0.602,10,1,1,1,1,509,1,505,509,0,0
0.603,11,1,1,1,1,511,1,506,506,0,0
0.604,12,1,1,1,1,511,1,505,509,0,0
0.605,13,1,1,1,1,511,1,512,509,0,0
0.606,14,1,1,1,1,512,1,507,508,0,0
0.607,15,1,1,1,1,512,1,510,509,0,0
0.608,0,1,1,1,1,511,1,512,508,0,0
0.609,1,1,1,1,1,512,1,515,508,0,0
0.61,2,1,1,1,1,514,1,515,508,0,0
0.611,3,1,1,1,1,512,1,515,509,0,0
0.612,4,1,1,1,1,512,1,508,510,0,0
0.613,5,1,1,1,1,512,3,507,510,0,0
0.614,6,1,1,1,1,510,1,510,509,0,0
0.615,7,1,1,1,1,513,1,509,510,0,0
0.616,8,1,1,1,1,512,1,501,508,0,0
0.617,9,1,1,1,1,510,1,509,508,0,0
0.618,10,1,1,1,1,511,1,514,508,0,0
0.619,11,1,1,1,1,511,1,515,508,0,0
0.62,12,1,1,1,1,511,1,510,506,0,0
0.621,13,1,1,1,1,512,3,508,508,0,0
0.622,14,1,1,1,1,512,1,509,507,0,0
0.623,15,1,1,1,1,512,1,512,506,0,0
0.624,0,1,1,1,1,512,1,508,510,0,0
0.625,1,1,1,1,1,512,1,504,510,0,0
0.626,2,1,1,1,1,511,1,508,509,0,0
0.627,3,1,1,1,1,511,1,515,509,0,0
0.628,4,1,1,1,1,510,1,517,507,0,0
0.629,5,1,1,1,1,510,3,513,507,0,0
0.63,6,1,1,1,1,513,1,511,509,0,0
0.631,7,1,1,1,1,511,1,506,511,0,0
0.632,8,1,1,1,1,510,1,508,508,0,0
0.633,9,1,1,1,1,512,1,509,510,0,0
0.634,10,1,1,1,1,513,1,507,510,0,0
0.635,11,1,1,1,1,513,1,506,508,0,0
0.636,12,1,1,1,1,513,1,506,506,0,0
0.637,13,1,1,1,1,512,3,510,511,0,0
0.638,14,1,1,1,1,512,1,514,507,0,0
0.639,15,1,1,1,1,512,1,513,508,0,0
0.64,0,1,1,1,1,511,1,512,508,0,0
0.641,1,1,1,1,1,509,1,516,508,0,0
0.642,2,1,1,1,1,512,1,519,509,0,0
0.643,3,1,1,1,1,512,1,521,508,0,0
0.644,4,1,1,1,1,512,1,518,508,0,0
0.645,5,1,1,1,1,512,3,518,508,0,0
0.646,6,1,1,1,1,511,1,517,509,0,0
0.647,7,1,1,1,1,512,1,507,507,0,0
0.648,8,1,1,1,1,508,1,506,505,0,0
0.649,9,1,1,1,1,510,1,505,510,0,0
0.65,10,1,1,1,1,513,1,505,510,0,0
0.651,11,1,1,1,1,512,1,509,510,0,0
0.652,12,1,1,1,1,513,1,505,508,0,0
0.653,13,1,1,1,1,511,3,510,508,0,0
0.654,14,1,1,1,1,511,1,509,507,0,0
0.655,15,1,1,1,1,511,1,510,507,0,0
0.656,0,1,1,1,1,511,1,509,508,0,0
0.657,1,1,1,1,1,510,1,505,508,0,0
0.658,2,1,1,1,1,512,1,504,505,0,0
0.659,3,1,1,1,1,511,1,509,507,0,0
0.66,4,1,1,1,1,512,1,512,508,0,0
0.661,5,1,1,1,1,512,3,512,509,0,0
0.662,6,1,1,1,1,512,1,510,509,0,0
0.663,7,1,1,1,1,512,1,509,509,0,0
0.664,8,1,1,1,1,511,0,506,509,0,0
0.665,9,1,1,1,1,511,1,507,510,0,0
0.666,10,1,1,1,1,512,1,507,507,0,0
0.667,11,1,1,1,1,513,1,507,508,0,0
0.668,12,1,1,1,1,512,1,506,508,0,0
0.669,13,1,1,1,1,511,3,508,508,0,0
0.67,14,1,1,1,1,513,1,508,508,0,0
0.671,15,1,1,1,1,511,1,505,509,0,0
0.672,0,1,1,1,1,512,0,510,509,0,0
0.673,1,1,1,1,1,511,1,516,508,0,0
0.674,2,1,1,1,1,511,1,505,507,0,0
0.675,3,1,1,1,1,510,1,507,509,0,0
0.676,4,1,1,1,1,511,1,511,508,0,0
0.677,5,1,1,1,1,510,3,512,509,0,0
0.678,6,1,1,1,1,511,1,518,508,0,0
0.679,7,1,1,1,1,510,1,513,511,0,0
0.68,8,1,1,1,1,511,1,512,508,0,0
0.681,9,1,1,1,1,512,1,515,508,0,0
0.682,10,1,1,1,1,512,1,514,507,0,0
0.683,11,1,1,1,1,511,1,516,509,0,0
0.684,12,1,1,1,1,511,1,507,510,0,0
0.685,13,1,1,1,1,513,3,512,508,0,0
0.686,14,1,1,1,1,513,1,508,508,0,0
0.687,15,1,1,1,1,512,1,511,508,0,0
0.688,0,1,1,1,1,512,1,511,507,0,0
0.689,1,1,1,1,1,512,1,515,511,0,0
0.69,2,1,1,1,1,512,1,511,509,0,0
0.691,3,1,1,1,1,511,1,513,509,0,0
0.692,4,1,1,1,1,511,1,506,508,0,0
0.693,5,1,1,1,1,509,3,509,507,0,0
0.694,6,1,1,1,1,510,1,511,509,0,0
0.695,7,1,1,1,1,512,1,519,508,0,0
0.696,8,1,1,1,1,513,1,519,509,0,0
0.697,9,1,1,1,1,512,1,515,506,0,0
0.698,10,1,1,1,1,512,1,510,508,0,0
0.699,11,1,1,1,1,512,1,514,508,0,0
0.7,12,1,1,1,1,511,1,503,509,0,0
0.701,13,1,1,1,1,512,2,507,510,0,0
0.702,14,1,1,1,1,511,1,506,509,0,0
0.703,15,1,1,1,1,511,1,510,509,0,0
0.704,0,1,1,1,1,511,1,510,508,0,0
0.705,1,1,1,1,1,511,1,508,508,0,0
0.706,2,1,1,1,1,513,1,508,507,0,0
0.707,3,1,1,1,1,512,1,505,508,0,0
0.708,4,1,1,1,1,511,1,509,509,0,0
0.709,5,1,1,1,1,513,2,510,507,0,0
0.71,6,1,1,1,1,512,1,513,508,0,0
0.711,7,1,1,1,1,511,1,514,508,0,0
0.712,8,1,1,1,1,511,1,507,507,0,0
0.713,9,1,1,1,1,511,1,507,508,0,0
0.714,10,1,1,1,1,512,1,503,510,0,0
0.715,11,1,1,1,1,512,1,503,508,0,0
0.716,12,1,1,1,1,511,1,509,509,0,0
0.717,13,1,1,1,1,513,2,509,509,0,0
0.718,14,1,1,1,1,510,1,512,507,0,0
0.719,15,1,1,1,1,509,1,519,509,0,0
0.72,0,1,1,1,1,511,1,521,509,0,0
0.721,1,1,1,1,1,511,1,516,506,0,0
0.722,2,1,1,1,1,512,1,513,508,0,0
0.723,3,1,1,1,1,511,1,514,508,0,0
0.724,4,1,1,1,1,512,1,509,507,0,0
0.725,5,1,1,1,1,512,3,511,509,0,0
0.726,6,1,1,1,1,512,1,510,510,0,0
0.727,7,1,1,1,1,512,1,505,510,0,0
0.728,8,1,1,1,1,510,1,508,509,0,0
0.729,9,1,1,1,1,510,1,512,510,0,0
0.73,10,1,1,1,1,511,1,515,509,0,0
0.731,11,1,1,1,1,512,1,513,510,0,0
0.732,12,1,1,1,1,513,1,508,508,0,0
0.733,13,1,1,1,1,512,3,512,508,0,0
0.734,14,1,1,1,1,512,1,508,508,0,0
0.735,15,1,1,1,1,511,1,515,509,0,0
0.736,0,1,1,1,1,513,1,511,508,0,0
0.737,1,1,1,1,1,511,1,503,507,0,0
0.738,2,1,1,1,1,511,1,500,507,0,0
0.739,3,1,1,1,1,510,1,511,508,0,0
0.74,4,1,1,1,1,511,1,511,506,0,0
0.741,5,1,1,1,1,511,3,511,509,0,0
0.742,6,1,1,1,1,514,1,520,509,0,0
0.743,7,1,1,1,1,508,1,518,507,0,0
0.744,8,1,1,1,1,512,0,512,508,0,0
0.745,9,1,1,1,1,513,1,508,509,0,0
0.746,10,1,1,1,1,511,1,506,509,0,0
0.747,11,1,1,1,1,512,1,503,508,0,0
0.748,12,1,1,1,1,510,1,507,508,0,0
0.749,13,1,1,1,1,513,3,511,510,0,0
0.75,14,1,1,1,1,512,1,509,509,0,0
0.751,15,1,1,1,1,512,1,509,510,0,0
0.752,0,1,1,1,1,512,0,505,508,0,0
0.753,1,1,1,1,1,512,1,507,508,0,0
0.754,2,1,1,1,1,512,1,508,507,0,0
0.755,3,1,1,1,1,511,1,510,506,0,0
0.756,4,1,1,1,1,511,1,510,508,0,0
0.757,5,1,1,1,1,509,3,511,508,0,0
0.758,6,1,1,1,1,510,1,510,507,0,0
0.759,7,1,1,1,1,511,1,506,506,0,0
0.76,8,1,1,1,1,512,0,505,509,0,0
0.761,9,1,1,1,1,511,1,506,511,0,0
0.762,10,1,1,1,1,511,1,503,508,0,0
0.763,11,1,1,1,1,511,1,502,507,0,0
0.764,12,1,1,1,1,511,1,505,508,0,0
0.765,13,1,1,1,1,512,3,503,510,0,0
0.766,14,1,1,1,1,513,1,509,508,0,0
0.767,15,1,1,1,1,511,1,508,511,0,0
0.768,0,1,1,1,1,510,1,511,509,0,0
0.769,1,1,1,1,1,510,1,512,508,0,0
0.77,2,1,1,1,1,513,1,512,509,0,0
0.771,3,1,1,1,1,512,1,517,507,0,0
0.772,4,1,1,1,1,512,1,517,509,0,0
0.773,5,1,1,1,1,511,3,517,508,0,0
0.774,6,1,1,1,1,510,1,511,507,0,0
0.775,7,1,1,1,1,511,1,508,508,0,0
0.776,8,1,1,1,1,510,1,508,508,0,0
0.777,9,1,1,1,1,512,1,511,508,0,0
0.778,10,1,1,1,1,511,1,507,510,0,0
0.779,11,1,1,1,1,513,1,510,512,0,0
0.78,12,1,1,1,1,512,1,513,510,0,0
0.781,13,1,1,1,1,513,3,514,509,0,0
0.782,14,1,1,1,1,513,1,508,508,0,0
0.783,15,1,1,1,1,511,1,512,507,0,0
0.784,0,1,1,1,1,511,1,514,508,0,0
0.785,1,1,1,1,1,511,1,509,508,0,0
0.786,2,1,1,1,1,509,1,515,507,0,0
0.787,3,1,1,1,1,510,1,516,508,0,0
0.788,4,1,1,1,1,511,1,512,506,0,0
0.789,5,1,1,1,1,511,3,511,511,0,0
0.79,6,1,1,1,1,512,1,511,509,0,0
0.791,7,1,1,1,1,512,1,512,508,0,0
0.792,8,1,1,1,1,512,1,518,508,0,0
0.793,9,1,1,1,1,510,1,516,507,0,0
0.794,10,1,1,1,1,511,1,512,509,0,0
0.795,11,1,1,1,1,511,1,512,507,0,0
0.796,12,1,1,1,1,511,1,512,506,0,0
0.797,13,1,1,1,1,512,3,510,510,0,0
0.798,14,1,1,1,1,510,1,505,508,0,0
0.799,15,1,1,1,1,513,1,502,510,0,0
0.8,0,1,1,1,1,513,1,499,509,0,0
0.801,1,1,1,1,1,512,1,504,507,0,0
0.802,2,1,1,1,1,509,1,509,509,0,0
0.803,3,1,1,1,1,511,0,505,507,0,0
0.804,4,1,1,1,1,511,1,510,507,0,0
0.805,5,1,1,1,1,512,3,505,510,0,0
0.806,6,1,1,1,1,511,1,507,507,0,0
0.807,7,1,1,1,1,512,1,507,508,0,0
0.808,8,1,1,1,1,512,1,505,510,0,0
0.809,9,1,1,1,1,512,1,510,508,0,0
0.81,10,1,1,1,1,512,1,505,508,0,0
0.811,11,1,1,1,1,511,1,510,510,0,0
0.812,12,1,1,1,1,512,1,520,509,0,0
0.813,13,1,1,1,1,510,1,517,508,0,0
0.814,14,1,1,1,1,511,1,510,508,0,0
0.815,15,1,1,1,1,510,1,513,510,0,0
0.816,0,1,1,1,1,511,1,508,511,0,0
0.817,1,1,1,1,1,511,1,508,511,0,0
0.818,2,1,1,1,1,512,1,507,510,0,0
0.819,3,1,1,1,1,512,1,506,508,0,0
0.82,4,1,1,1,1,511,1,508,506,0,0
0.821,5,1,1,1,1,511,1,511,507,0,0
0.822,6,1,1,1,1,511,1,511,509,0,0
0.823,7,1,1,1,1,512,1,516,507,0,0
0.824,8,1,1,1,1,513,1,520,507,0,0
0.825,9,1,1,1,1,512,1,515,508,0,0
0.826,10,1,1,1,1,512,1,513,508,0,0
0.827,11,1,1,1,1,511,1,510,508,0,0
0.828,12,1,1,1,1,511,1,507,508,0,0
0.829,13,1,1,1,1,511,1,512,507,0,0
0.83,14,1,1,1,1,511,1,507,509,0,0
0.831,15,1,1,1,1,511,1,510,508,0,0
0.832,0,1,1,1,1,511,1,505,509,0,0
0.833,1,1,1,1,1,509,1,508,509,0,0
0.834,2,1,1,1,1,510,1,505,511,0,0
0.835,3,1,1,1,1,512,0,514,509,0,0
0.836,4,1,1,1,1,512,1,509,508,0,0
0.837,5,1,1,1,1,511,3,513,508,0,0
0.838,6,1,1,1,1,511,1,515,507,0,0
0.839,7,1,1,1,1,512,1,511,508,0,0
0.84,8,1,1,1,1,512,1,515,506,0,0
0.841,9,1,1,1,1,511,1,524,508,0,0
0.842,10,1,1,1,1,512,1,521,509,0,0
0.843,11,1,1,1,1,512,1,517,509,0,0
0.844,12,1,1,1,1,510,1,504,508,0,0
0.845,13,1,1,1,1,511,3,506,510,0,0
0.846,14,1,1,1,1,512,1,504,509,0,0
0.847,15,1,1,1,1,510,1,504,509,0,0
0.848,0,1,1,1,1,511,1,507,507,0,0
0.849,1,1,1,1,1,513,1,504,509,0,0
0.85,2,1,1,1,1,511,1,505,507,0,0
0.851,3,1,1,1,1,511,0,508,508,0,0
0.852,4,1,1,1,1,513,1,510,511,0,0
0.853,5,1,1,1,1,513,3,511,510,0,0
0.854,6,1,1,1,1,513,1,515,511,0,0
0.855,7,1,1,1,1,511,1,517,508,0,0
0.856,8,1,1,1,1,510,1,517,506,0,0
0.857,9,1,1,1,1,513,1,510,508,0,0
0.858,10,1,1,1,1,510,1,510,508,0,0
0.859,11,1,1,1,1,512,1,511,506,0,0
0.86,12,1,1,1,1,511,1,505,507,0,0
0.861,13,1,1,1,1,509,3,509,511,0,0
0.862,14,1,1,1,1,513,1,504,507,0,0
0.863,15,1,1,1,1,510,1,504,508,0,0
0.864,0,1,1,1,1,512,1,507,508,0,0
0.865,1,1,1,1,1,512,1,504,508,0,0
0.866,2,1,1,1,1,511,1,507,509,0,0
0.867,3,1,1,1,1,512,1,513,507,0,0
0.868,4,1,1,1,1,510,1,509,507,0,0
0.869,5,1,1,1,1,512,3,507,506,0,0
0.87,6,1,1,1,1,512,1,511,509,0,0
0.871,7,1,1,1,1,514,1,510,510,0,0
0.872,8,1,1,1,1,514,1,514,511,0,0
0.873,9,1,1,1,1,510,1,511,509,0,0
0.874,10,1,1,1,1,510,1,509,509,0,0
0.875,11,1,1,1,1,512,1,515,509,0,0
0.876,12,1,1,1,1,509,1,520,509,0,0
0.877,13,1,1,1,1,512,3,520,509,0,0
0.878,14,1,1,1,1,512,1,523,508,0,0
0.879,15,1,1,1,1,511,1,512,509,0,0
0.88,0,1,1,1,1,511,0,507,510,0,0
0.881,1,1,1,1,1,510,1,511,509,0,0
0.882,2,1,1,1,1,511,1,513,508,0,0
0.883,3,1,1,1,1,514,1,515,506,0,0
0.884,4,1,1,1,1,514,1,511,507,0,0
0.885,5,1,1,1,1,512,3,509,510,0,0
0.886,6,1,1,1,1,512,1,512,507,0,0
0.887,7,1,1,1,1,511,1,504,508,0,0
0.888,8,1,1,1,1,511,0,498,509,0,0
0.889,9,1,1,1,1,511,1,504,508,0,0
0.89,10,1,1,1,1,511,1,510,508,0,0
0.891,11,1,1,1,1,510,1,507,506,0,0
0.892,12,1,1,1,1,510,1,515,510,0,0
0.893,13,1,1,1,1,509,3,512,510,0,0
0.894,14,1,1,1,1,512,1,517,508,0,0
0.895,15,1,1,1,1,513,1,523,508,0,0
0.896,0,1,1,1,1,512,0,515,508,0,0
0.897,1,1,1,1,1,512,1,508,509,0,0
0.898,2,1,1,1,1,512,1,508,507,0,0
0.899,3,1,1,1,1,513,1,509,510,0,0
0.9,4,1,1,1,1,512,1,503,510,0,0
0.901,5,1,1,1,1,512,3,509,508,0,0
0.902,6,1,1,1,1,512,1,508,508,0,0
0.903,7,1,1,1,1,512,1,505,508,0,0
0.904,8,1,1,1,1,510,1,502,508,0,0
0.905,9,1,1,1,1,511,1,504,508,0,0
0.906,10,1,1,1,1,510,1,504,507,0,0
0.907,11,1,1,1,1,513,1,509,508,0,0
0.908,12,1,1,1,1,511,1,513,508,0,0
0.909,13,1,1,1,1,511,3,517,507,0,0
0.91,14,1,1,1,1,511,1,511,507,0,0
0.911,15,1,1,1,1,511,1,516,508,0,0
0.912,0,1,1,1,1,512,1,513,510,0,0
0.913,1,1,1,1,1,513,1,515,508,0,0
0.914,2,1,1,1,1,511,1,509,509,0,0
0.915,3,1,1,1,1,511,1,517,512,0,0
0.916,4,1,1,1,1,510,1,520,507,0,0
0.917,5,1,1,1,1,513,3,518,509,0,0
0.918,6,1,1,1,1,513,1,517,507,0,0
0.919,7,1,1,1,1,510,1,512,510,0,0
0.92,8,1,1,1,1,512,1,511,510,0,0
0.921,9,1,1,1,1,510,1,502,508,0,0
0.922,10,1,1,1,1,512,1,506,507,0,0
0.923,11,1,1,1,1,510,1,507,505,0,0
0.924,12,1,1,1,1,513,1,510,510,0,0
0.925,13,1,1,1,1,511,2,512,510,0,0
0.926,14,1,1,1,1,512,1,502,508,0,0
0.927,15,1,1,1,1,513,1,500,509,0,0
0.928,0,1,1,1,1,510,1,503,508,0,0
0.929,1,1,1,1,1,511,1,506,508,0,0
0.93,2,1,1,1,1,511,1,507,507,0,0
0.931,3,1,1,1,1,512,1,508,507,0,0
0.932,4,1,1,1,1,513,1,511,510,0,0
0.933,5,1,1,1,1,512,2,503,510,0,0
0.934,6,1,1,1,1,512,1,505,510,0,0
0.935,7,1,1,1,1,512,1,505,510,0,0
0.936,8,1,1,1,1,512,1,507,510,0,0
0.937,9,1,1,1,1,512,1,511,508,0,0
0.938,10,1,1,1,1,513,1,513,508,0,0
0.939,11,1,1,1,1,510,1,513,507,0,0
0.94,12,1,1,1,1,510,1,512,505,0,0
0.941,13,1,1,1,1,511,3,511,507,0,0
0.942,14,1,1,1,1,512,1,513,508,0,0
0.943,15,1,1,1,1,510,1,508,510,0,0
0.944,0,1,1,1,1,513,1,513,509,0,0
0.945,1,1,1,1,1,512,1,516,510,0,0
0.946,2,1,1,1,1,511,1,513,506,0,0
0.947,3,1,1,1,1,511,1,506,508,0,0
0.948,4,1,1,1,1,512,1,507,508,0,0
0.949,5,1,1,1,1,512,3,509,507,0,0
0.95,6,1,1,1,1,511,1,510,510,0,0
0.951,7,1,1,1,1,512,1,513,508,0,0
0.952,8,1,1,1,1,510,1,512,509,0,0
0.953,9,1,1,1,1,511,1,509,509,0,0
0.954,10,1,1,1,1,510,1,513,510,0,0
0.955,11,1,1,1,1,512,1,508,510,0,0
0.956,12,1,1,1,1,511,1,512,508,0,0
0.957,13,1,1,1,1,511,3,513,510,0,0
0.958,14,1,1,1,1,511,1,506,508,0,0
0.959,15,1,1,1,1,511,1,505,509,0,0
0.96,0,1,1,1,1,513,1,503,509,0,0
0.961,1,1,1,1,1,511,1,508,508,0,0
0.962,2,1,1,1,1,512,1,507,508,0,0
0.963,3,1,1,1,1,513,1,509,509,0,0
0.964,4,1,1,1,1,512,1,509,508,0,0
0.965,5,1,1,1,1,512,3,512,506,0,0
0.966,6,1,1,1,1,512,1,505,509,0,0
0.967,7,1,1,1,1,512,1,510,510,0,0
0.968,8,1,1,1,1,511,0,504,507,0,0
0.969,9,1,1,1,1,509,1,511,508,0,0
0.97,10,1,1,1,1,511,1,514,510,0,0
0.971,11,1,1,1,1,512,1,514,510,0,0
0.972,12,1,1,1,1,512,1,512,509,0,0
0.973,13,1,1,1,1,512,3,507,508,0,0
0.974,14,1,1,1,1,510,1,515,508,0,0
0.975,15,1,1,1,1,512,1,518,508,0,0
0.976,0,1,1,1,1,510,0,515,508,0,0
0.977,1,1,1,1,1,512,1,515,507,0,0
0.978,2,1,1,1,1,513,1,516,509,0,0
0.979,3,1,1,1,1,513,1,519,511,0,0
0.98,4,1,1,1,1,511,1,512,509,0,0
0.981,5,1,1,1,1,513,3,517,508,0,0
0.982,6,1,1,1,1,513,1,514,508,0,0
0.983,7,1,1,1,1,511,1,510,510,0,0
0.984,8,1,1,1,1,511,0,505,508,0,0
0.985,9,1,1,1,1,510,1,506,507,0,0
0.986,10,1,1,1,1,512,1,508,508,0,0
0.987,11,1,1,1,1,511,1,508,508,0,0
0.988,12,1,1,1,1,512,1,511,508,0,0
0.989,13,1,1,1,1,512,3,515,508,0,0
0.99,14,1,1,1,1,511,1,515,506,0,0
0.991,15,1,1,1,1,510,1,515,508,0,0
0.992,0,1,1,1,1,513,1,510,509,0,0
0.993,1,1,1,1,1,511,1,511,509,0,0
0.994,2,1,1,1,1,510,1,514,507,0,0
0.995,3,1,1,1,1,510,1,515,508,0,0
0.996,4,1,1,1,1,512,1,510,508,0,0
0.997,5,1,1,1,1,511,3,510,508,0,0
0.998,6,1,1,1,1,512,1,510,508,0,0
0.999,7,1,1,1,1,511,1,507,509,0,0
1.0,8,1,1,1,1,512,1,505,511,0,0
1.001,9,1,1,1,1,511,1,511,510,0,0
1.002,10,1,1,1,1,511,1,509,510,0,0
1.003,11,1,1,1,1,513,1,504,511,0,0
1.004,12,1,1,1,1,509,1,502,510,0,0
1.005,13,1,1,1,1,512,3,506,510,0,0
1.006,14,1,1,1,1,511,1,512,507,0,0
1.007,15,1,1,1,1,512,1,512,507,0,0
1.008,0,1,1,1,1,511,1,514,508,0,0
1.009,1,1,1,1,1,512,1,513,510,0,0
1.01,2,1,1,1,1,511,1,514,507,0,0
1.011,3,1,1,1,1,510,0,511,507,0,0
1.012,4,1,1,1,1,512,1,516,507,0,0
1.013,5,1,1,1,1,511,3,512,509,0,0
1.014,6,1,1,1,1,510,1,508,508,0,0
1.015,7,1,1,1,1,510,1,507,508,0,0
1.016,8,1,1,1,1,510,1,499,508,0,0
1.017,9,1,1,1,1,512,1,502,510,0,0
1.018,10,1,1,1,1,512,1,500,510,0,0
1.019,11,1,1,1,1,511,0,508,509,0,0
1.02,12,1,1,1,1,511,1,510,510,0,0
1.021,13,1,1,1,1,512,3,508,508,0,0
1.022,14,1,1,1,1,512,1,509,507,0,0
1.023,15,1,1,1,1,511,1,511,508,0,0
1.024,0,1,1,1,1,513,1,514,508,0,0
1.025,1,1,1,1,1,512,1,512,508,0,0
1.026,2,1,1,1,1,511,1,511,508,0,0
1.027,3,1,1,1,1,512,1,514,505,0,0
1.028,4,1,1,1,1,511,1,511,508,0,0
1.029,5,1,1,1,1,511,1,510,508,0,0
1.03,6,1,1,1,1,512,1,509,509,0,0
1.031,7,1,1,1,1,511,1,511,509,0,0
1.032,8,1,1,1,1,512,1,508,508,0,0
1.033,9,1,1,1,1,512,1,506,510,0,0
1.034,10,1,1,1,1,513,1,510,508,0,0
1.035,11,1,1,1,1,511,1,509,510,0,0
1.036,12,1,1,1,1,512,1,512,508,0,0
1.037,13,1,1,1,1,511,1,515,506,0,0
1.038,14,1,1,1,1,512,1,512,510,0,0
1.039,15,1,1,1,1,512,1,507,506,0,0
1.04,0,1,1,1,1,512,1,508,507,0,0
1.041,1,1,1,1,1,511,1,505,508,0,0
1.042,2,1,1,1,1,511,1,505,507,0,0
1.043,3,1,1,1,1,510,1,507,510,0,0
1.044,4,1,1,1,1,511,1,506,510,0,0
1.045,5,1,1,1,1,511,1,513,509,0,0
1.046,6,1,1,1,1,511,1,514,508,0,0
1.047,7,1,1,1,1,510,1,510,508,0,0
1.048,8,1,1,1,1,513,1,510,508,0,0
1.049,9,1,1,1,1,513,1,509,508,0,0
1.05,10,1,1,1,1,512,1,511,508,0,0
1.051,11,1,1,1,1,512,0,513,508,0,0
1.052,12,1,1,1,1,509,1,512,509,0,0
1.053,13,1,1,1,1,510,3,515,508,0,0
1.054,14,1,1,1,1,511,1,511,506,0,0
1.055,15,1,1,1,1,512,1,512,510,0,0
1.056,0,1,1,1,1,510,1,514,509,0,0
1.057,1,1,1,1,1,511,1,516,508,0,0
1.058,2,1,1,1,1,512,1,511,507,0,0
1.059,3,1,1,1,1,511,0,508,509,0,0
1.06,4,1,1,1,1,511,1,510,510,0,0
1.061,5,1,1,1,1,510,3,509,509,0,0
1.062,6,1,1,1,1,514,1,512,507,0,0
1.063,7,1,1,1,1,514,1,506,507,0,0
1.064,8,1,1,1,1,512,1,508,509,0,0
1.065,9,1,1,1,1,510,1,506,509,0,0
1.066,10,1,1,1,1,512,1,510,509,0,0
1.067,11,1,1,1,1,511,0,512,509,0,0
1.068,12,1,1,1,1,511,1,516,511,0,0
1.069,13,1,1,1,1,512,3,518,507,0,0
1.07,14,1,1,1,1,512,1,507,507,0,0
1.071,15,1,1,1,1,511,1,508,508,0,0
1.072,0,1,1,1,1,512,1,510,509,0,0
1.073,1,1,1,1,1,511,1,511,508,0,0
1.074,2,1,1,1,1,512,1,511,507,0,0
1.075,3,1,1,1,1,513,1,513,508,0,0
1.076,4,1,1,1,1,512,1,518,510,0,0
1.077,5,1,1,1,1,510,3,519,510,0,0
1.078,6,1,1,1,1,510,1,509,509,0,0
1.079,7,1,1,1,1,510,1,512,508,0,0
1.08,8,1,1,1,1,512,1,509,508,0,0
1.081,9,1,1,1,1,511,1,507,508,0,0
1.082,10,1,1,1,1,511,1,507,507,0,0
1.083,11,1,1,1,1,512,1,508,508,0,0
1.084,12,1,1,1,1,512,1,503,509,0,0
1.085,13,1,1,1,1,510,3,504,509,0,0
1.086,14,1,1,1,1,512,1,502,510,0,0
1.087,15,1,1,1,1,511,1,505,507,0,0
1.088,0,1,1,1,1,512,1,508,508,0,0
1.089,1,1,1,1,1,512,1,509,507,0,0
1.09,2,1,1,1,1,512,1,510,508,0,0
1.091,3,1,1,1,1,510,1,510,509,0,0
1.092,4,1,1,1,1,512,1,513,509,0,0
1.093,5,1,1,1,1,510,3,515,508,0,0
1.094,6,1,1,1,1,511,1,517,509,0,0
1.095,7,1,1,1,1,511,1,512,510,0,0
1.096,8,1,1,1,1,511,0,513,508,0,0
1.097,9,1,1,1,1,510,1,511,508,0,0
1.098,10,1,1,1,1,512,1,510,508,0,0
1.099,11,1,1,1,1,512,1,507,507,0,0
1.1,12,1,1,1,1,512,1,510,508,0,0
1.101,13,1,1,1,1,513,3,506,510,0,0
1.102,14,1,1,1,1,512,1,512,507,0,0
1.103,15,1,1,1,1,511,1,508,507,0,0
1.104,0,1,1,1,1,510,0,501,509,0,0
1.105,1,1,1,1,1,511,1,505,507,0,0
1.106,2,1,1,1,1,511,1,508,508,0,0
1.107,3,1,1,1,1,512,1,511,509,0,0
1.108,4,1,1,1,1,512,1,509,510,0,0
1.109,5,1,1,1,1,512,3,513,507,0,0
1.11,6,1,1,1,1,512,1,513,508,0,0
1.111,7,1,1,1,1,510,1,510,507,0,0
1.112,8,1,1,1,1,511,0,510,508,0,0
1.113,9,1,1,1,1,512,1,510,507,0,0
1.114,10,1,1,1,1,512,1,512,509,0,0
1.115,11,1,1,1,1,510,1,508,508,0,0
1.116,12,1,1,1,1,510,1,508,510,0,0
1.117,13,1,1,1,1,512,3,508,507,0,0
1.118,14,1,1,1,1,510,1,506,508,0,0
1.119,15,1,1,1,1,510,1,506,507,0,0
1.12,0,1,1,1,1,512,1,511,508,0,0
1.121,1,1,1,1,1,511,1,513,508,0,0
1.122,2,1,1,1,1,512,1,520,509,0,0
1.123,3,1,1,1,1,511,1,516,508,0,0
1.124,4,1,1,1,1,513,1,509,511,0,0
1.125,5,1,1,1,1,513,3,511,508,0,0
1.126,6,1,1,1,1,512,1,512,509,0,0
1.127,7,1,1,1,1,511,1,515,509,0,0
1.128,8,1,1,1,1,513,1,510,509,0,0
1.129,9,1,1,1,1,510,1,510,508,0,0
1.13,10,1,1,1,1,510,1,504,507,0,0
1.131,11,1,1,1,1,511,1,509,510,0,0
1.132,12,1,1,1,1,511,1,511,509,0,0
1.133,13,1,1,1,1,510,3,511,511,0,0
1.134,14,1,1,1,1,511,1,512,509,0,0
1.135,15,1,1,1,1,510,1,508,509,0,0
1.136,0,1,1,1,1,513,1,509,507,0,0
1.137,1,1,1,1,1,513,1,516,510,0,0
1.138,2,1,1,1,1,513,1,516,508,0,0
1.139,3,1,1,1,1,511,1,521,507,0,0
1.14,4,1,1,1,1,511,1,520,508,0,0
1.141,5,1,1,1,1,511,2,518,508,0,0
1.142,6,1,1,1,1,512,1,514,507,0,0
1.143,7,1,1,1,1,512,1,513,508,0,0
1.144,8,1,1,1,1,512,1,510,509,0,0
1.145,9,1,1,1,1,512,1,506,509,0,0
1.146,10,1,1,1,1,510,1,503,510,0,0
1.147,11,1,1,1,1,512,1,505,508,0,0
1.148,12,1,1,1,1,511,1,504,508,0,0
1.149,13,1,1,1,1,511,2,506,509,0,0
1.15,14,1,1,1,1,512,1,505,508,0,0
1.151,15,1,1,1,1,512,1,506,507,0,0
1.152,0,1,1,1,1,511,1,512,507,0,0
1.153,1,1,1,1,1,513,1,513,509,0,0
1.154,2,1,1,1,1,512,1,513,508,0,0
1.155,3,1,1,1,1,511,1,513,508,0,0
1.156,4,1,1,1,1,512,1,513,508,0,0
1.157,5,1,1,1,1,513,2,512,511,0,0
1.158,6,1,1,1,1,511,1,509,508,0,0
1.159,7,1,1,1,1,509,1,506,510,0,0
1.16,8,1,1,1,1,511,1,503,508,0,0
1.161,9,1,1,1,1,510,1,505,509,0,0
1.162,10,1,1,1,1,510,1,514,507,0,0
1.163,11,1,1,1,1,512,1,510,508,0,0
1.164,12,1,1,1,1,512,1,510,506,0,0
1.165,13,1,1,1,1,512,3,506,507,0,0
1.166,14,1,1,1,1,511,1,509,507,0,0
1.167,15,1,1,1,1,511,1,511,508,0,0
1.168,0,1,1,1,1,511,1,517,508,0,0
1.169,1,1,1,1,1,512,1,511,509,0,0
1.17,2,1,1,1,1,511,1,517,510,0,0
1.171,3,1,1,1,1,512,1,513,510,0,0
1.172,4,1,1,1,1,514,1,511,509,0,0
1.173,5,1,1,1,1,509,3,502,511,0,0
1.174,6,1,1,1,1,511,1,507,507,0,0
1.175,7,1,1,1,1,512,1,508,507,0,0
1.176,8,1,1,1,1,514,1,510,510,0,0
1.177,9,1,1,1,1,513,1,512,510,0,0
1.178,10,1,1,1,1,511,1,514,510,0,0
1.179,11,1,1,1,1,510,1,510,506,0,0
1.18,12,1,1,1,1,511,1,505,508,0,0
1.181,13,1,1,1,1,509,3,507,506,0,0
1.182,14,1,1,1,1,511,1,509,508,0,0
1.183,15,1,1,1,1,511,1,516,509,0,0
1.184,0,1,1,1,1,511,0,515,509,0,0
1.185,1,1,1,1,1,511,1,518,511,0,0
1.186,2,1,1,1,1,512,1,516,511,0,0
1.187,3,1,1,1,1,512,1,509,510,0,0
1.188,4,1,1,1,1,512,1,510,508,0,0
1.189,5,1,1,1,1,512,3,517,508,0,0
1.19,6,1,1,1,1,511,1,520,506,0,0
1.191,7,1,1,1,1,509,1,520,508,0,0
1.192,8,1,1,1,1,510,0,515,508,0,0
1.193,9,1,1,1,1,512,1,509,507,0,0
1.194,10,1,1,1,1,512,1,507,509,0,0
1.195,11,1,1,1,1,512,1,505,511,0,0
1.196,12,1,1,1,1,511,1,501,508,0,0
1.197,13,1,1,1,1,514,3,503,508,0,0
1.198,14,1,1,1,1,512,1,504,506,0,0
1.199,15,1,1,1,1,514,1,505,509,0,0
1.2,0,1,1,1,1,511,0,505,508,0,0
1.201,1,1,1,1,1,512,1,509,509,0,0
1.202,2,1,1,1,1,512,1,509,509,0,0
1.203,3,1,1,1,1,512,1,508,508,0,0
1.204,4,1,1,1,1,511,1,509,508,0,0
1.205,5,1,1,1,1,511,3,508,511,0,0
1.206,6,1,1,1,1,511,1,504,510,0,0
1.207,7,1,1,1,1,511,1,506,507,0,0
1.208,8,1,1,1,1,510,1,508,508,0,0
1.209,9,1,1,1,1,512,1,508,509,0,0
1.21,10,1,1,1,1,511,1,509,508,0,0
1.211,11,1,1,1,1,509,1,514,508,0,0
1.212,12,1,1,1,1,511,1,509,508,0,0
1.213,13,1,1,1,1,511,3,514,510,0,0
1.214,14,1,1,1,1,511,1,516,507,0,0
1.215,15,1,1,1,1,511,1,513,508,0,0
1.216,0,1,1,1,1,513,1,508,506,0,0
1.217,1,1,1,1,1,512,1,505,510,0,0
1.218,2,1,1,1,1,512,1,506,508,0,0
1.219,3,1,1,1,1,512,1,508,508,0,0
1.22,4,1,1,1,1,510,1,512,508,0,0
1.221,5,1,1,1,1,512,3,512,509,0,0
1.222,6,1,1,1,1,512,1,515,509,0,0
1.223,7,1,1,1,1,511,1,512,506,0,0
1.224,8,1,1,1,1,510,1,511,509,0,0
1.225,9,1,1,1,1,513,1,512,508,0,0
1.226,10,1,1,1,1,511,1,514,508,0,0
1.227,11,1,1,1,1,513,1,512,509,0,0
1.228,12,1,1,1,1,509,1,508,508,0,0
1.229,13,1,1,1,1,510,3,506,509,0,0
1.23,14,1,1,1,1,512,1,516,508,0,0
1.231,15,1,1,1,1,511,1,517,509,0,0
1.232,0,1,1,1,1,512,1,520,508,0,0
1.233,1,1,1,1,1,512,1,524,509,0,0
1.234,2,1,1,1,1,512,1,515,509,0,0
1.235,3,1,1,1,1,512,0,517,508,0,0
1.236,4,1,1,1,1,512,1,509,509,0,0
1.237,5,1,1,1,1,513,3,506,511,0,0
1.238,6,1,1,1,1,513,1,507,508,0,0
1.239,7,1,1,1,1,511,1,514,508,0,0
1.24,8,1,1,1,1,510,1,512,509,0,0
1.241,9,1,1,1,1,509,1,514,507,0,0
1.242,10,1,1,1,1,511,1,512,509,0,0
1.243,11,1,1,1,1,512,1,516,507,0,0
1.244,12,1,1,1,1,511,1,510,507,0,0
1.245,13,1,1,1,1,511,3,513,509,0,0
1.246,14,1,1,1,1,511,1,512,509,0,0
1.247,15,1,1,1,1,512,1,508,508,0,0
1.248,0,1,1,1,1,513,1,505,509,0,0
1.249,1,1,1,1,1,513,1,504,506,0,0
1.25,2,1,1,1,1,512,1,501,510,0,0
1.251,3,1,1,1,1,512,1,507,509,0,0
1.252,4,1,1,1,1,512,1,511,509,0,0
1.253,5,1,1,1,1,511,1,511,507,0,0
1.254,6,1,1,1,1,512,1,506,510,0,0
1.255,7,1,1,1,1,510,1,503,511,0,0
1.256,8,1,1,1,1,510,1,509,509,0,0
1.257,9,1,1,1,1,511,1,515,509,0,0
1.258,10,1,1,1,1,509,1,512,509,0,0
1.259,11,1,1,1,1,512,1,509,508,0,0
1.26,12,1,1,1,1,511,1,508,509,0,0
1.261,13,1,1,1,1,511,1,512,508,0,0
1.262,14,1,1,1,1,511,1,511,506,0,0
1.263,15,1,1,1,1,510,1,508,506,0,0
1.264,0,1,1,1,1,512,1,507,509,0,0
1.265,1,1,1,1,1,511,1,507,508,0,0
1.266,2,1,1,1,1,512,1,507,508,0,0
1.267,3,1,1,1,1,512,1,512,508,0,0
1.268,4,1,1,1,1,512,1,514,510,0,0
1.269,5,1,1,1,1,511,3,518,509,0,0
1.27,6,1,1,1,1,512,1,518,509,0,0
1.271,7,1,1,1,1,511,1,515,506,0,0
1.272,8,1,1,1,1,512,1,518,507,0,0
1.273,9,1,1,1,1,510,1,517,509,0,0
1.274,10,1,1,1,1,513,1,514,510,0,0
1.275,11,1,1,1,1,511,0,507,510,0,0
1.276,12,1,1,1,1,511,1,508,508,0,0
1.277,13,1,1,1,1,512,3,510,508,0,0
1.278,14,1,1,1,1,512,1,511,508,0,0
1.279,15,1,1,1,1,512,1,505,508,0,0
1.28,0,1,1,1,1,513,1,505,508,0,0
1.281,1,1,1,1,1,514,1,507,508,0,0
1.282,2,1,1,1,1,512,1,508,510,0,0
1.283,3,1,1,1,1,511,1,502,509,0,0
1.284,4,1,1,1,1,512,1,504,508,0,0
1.285,5,1,1,1,1,511,3,504,509,0,0
1.286,6,1,1,1,1,511,1,505,508,0,0
1.287,7,1,1,1,1,511,1,512,507,0,0
1.288,8,1,1,1,1,511,1,510,508,0,0
1.289,9,1,1,1,1,511,1,511,508,0,0
1.29,10,1,1,1,1,512,1,515,508,0,0
1.291,11,1,1,1,1,512,1,517,510,0,0
1.292,12,1,1,1,1,513,1,519,509,0,0
1.293,13,1,1,1,1,511,3,515,508,0,0
1.294,14,1,1,1,1,510,1,513,508,0,0
1.295,15,1,1,1,1,511,1,519,508,0,0
1.296,0,1,1,1,1,511,1,511,507,0,0
1.297,1,1,1,1,1,510,1,516,508,0,0
1.298,2,1,1,1,1,512,1,517,511,0,0
1.299,3,1,1,1,1,512,1,511,511,0,0
1.3,4,1,1,1,1,512,1,507,508,0,0
1.301,5,1,1,1,1,512,3,506,508,0,0
1.302,6,1,1,1,1,512,1,509,508,0,0
1.303,7,1,1,1,1,511,1,511,508,0,0
1.304,8,1,1,1,1,511,1,510,510,0,0
1.305,9,1,1,1,1,513,1,504,507,0,0
1.306,10,1,1,1,1,511,1,506,506,0,0
1.307,11,1,1,1,1,508,1,511,508,0,0
1.308,12,1,1,1,1,512,1,514,508,0,0
1.309,13,1,1,1,1,512,3,514,509,0,0
1.31,14,1,1,1,1,511,1,511,509,0,0
1.311,15,1,1,1,1,510,1,509,509,0,0
1.312,0,1,1,1,1,510,0,508,508,0,0
1.313,1,1,1,1,1,511,1,506,507,0,0
1.314,2,1,1,1,1,513,1,513,508,0,0
1.315,3,1,1,1,1,511,1,511,509,0,0
1.316,4,1,1,1,1,512,1,509,508,0,0
1.317,5,1,1,1,1,511,3,504,509,0,0
1.318,6,1,1,1,1,512,1,503,510,0,0
1.319,7,1,1,1,1,511,1,502,506,0,0
1.32,8,1,1,1,1,512,0,504,509,0,0
1.321,9,1,1,1,1,511,1,508,509,0,0
1.322,10,1,1,1,1,512,1,510,509,0,0
1.323,11,1,1,1,1,511,1,516,507,0,0
1.324,12,1,1,1,1,512,1,514,508,0,0
1.325,13,1,1,1,1,511,3,513,511,0,0
1.326,14,1,1,1,1,513,1,513,510,0,0
1.327,15,1,1,1,1,513,1,515,508,0,0
1.328,0,1,1,1,1,514,0,516,509,0,0
1.329,1,1,1,1,1,515,1,521,507,0,0
1.33,2,1,1,1,1,508,1,512,507,0,0
1.331,3,1,1,1,1,510,1,507,507,0,0
1.332,4,1,1,1,1,511,1,507,508,0,0
1.333,5,1,1,1,1,511,3,510,508,0,0
1.334,6,1,1,1,1,511,1,509,511,0,0
1.335,7,1,1,1,1,512,1,512,510,0,0
1.336,8,1,1,1,1,511,1,508,508,0,0
1.337,9,1,1,1,1,512,1,510,509,0,0
1.338,10,1,1,1,1,511,1,513,509,0,0
1.339,11,1,1,1,1,512,1,516,509,0,0
1.34,12,1,1,1,1,512,1,515,509,0,0
1.341,13,1,1,1,1,511,3,515,508,0,0
1.342,14,1,1,1,1,513,1,513,508,0,0
1.343,15,1,1,1,1,512,1,512,508,0,0
1.344,0,1,1,1,1,512,1,509,508,0,0
1.345,1,1,1,1,1,510,1,504,507,0,0
1.346,2,1,1,1,1,512,1,507,508,0,0
1.347,3,1,1,1,1,510,1,505,507,0,0
1.348,4,1,1,1,1,509,1,507,507,0,0
1.349,5,1,1,1,1,511,3,504,508,0,0
1.35,6,1,1,1,1,511,1,506,509,0,0
1.351,7,1,1,1,1,512,1,508,510,0,0
1.352,8,1,1,1,1,513,1,505,508,0,0
1.353,9,1,1,1,1,512,1,508,508,0,0
1.354,10,1,1,1,1,511,1,514,509,0,0
1.355,11,1,1,1,1,510,1,517,509,0,0
1.356,12,1,1,1,1,512,1,513,509,0,0
1.357,13,1,1,1,1,512,2,507,510,0,0
1.358,14,1,1,1,1,511,1,506,509,0,0
1.359,15,1,1,1,1,513,1,512,509,0,0
1.36,0,1,1,1,1,511,1,510,508,0,0
1.361,1,1,1,1,1,511,1,508,506,0,0
1.362,2,1,1,1,1,513,1,508,509,0,0
1.363,3,1,1,1,1,512,1,508,509,0,0
1.364,4,1,1,1,1,511,1,506,509,0,0
1.365,5,1,1,1,1,511,2,508,508,0,0
1.366,6,1,1,1,1,511,1,509,509,0,0
1.367,7,1,1,1,1,513,1,511,509,0,0
1.368,8,1,1,1,1,511,1,512,508,0,0
1.369,9,1,1,1,1,510,1,514,508,0,0
1.37,10,1,1,1,1,510,1,514,508,0,0
1.371,11,1,1,1,1,511,1,513,507,0,0
1.372,12,1,1,1,1,510,1,517,507,0,0
1.373,13,1,1,1,1,511,2,510,505,0,0
1.374,14,1,1,1,1,512,1,512,508,0,0
1.375,15,1,1,1,1,512,1,507,508,0,0
1.376,0,1,1,1,1,512,1,509,507,0,0
1.377,1,1,1,1,1,513,1,504,509,0,0
1.378,2,1,1,1,1,512,1,512,509,0,0
1.379,3,1,1,1,1,513,1,514,508,0,0
1.38,4,1,1,1,1,512,1,512,508,0,0
1.381,5,1,1,1,1,509,3,505,510,0,0
1.382,6,1,1,1,1,511,1,507,509,0,0
1.383,7,1,1,1,1,510,1,507,508,0,0
1.384,8,1,1,1,1,510,1,508,509,0,0
1.385,9,1,1,1,1,512,1,515,508,0,0
1.386,10,1,1,1,1,511,1,519,511,0,0
1.387,11,1,1,1,1,510,1,519,506,0,0
1.388,12,1,1,1,1,511,1,508,507,0,0
1.389,13,1,1,1,1,513,3,509,509,0,0
1.39,14,1,1,1,1,514,1,513,510,0,0
1.391,15,1,1,1,1,512,1,509,508,0,0
1.392,0,1,1,1,1,512,1,511,508,0,0
1.393,1,1,1,1,1,511,1,511,508,0,0
1.394,2,1,1,1,1,512,1,508,509,0,0
1.395,3,1,1,1,1,511,1,514,509,0,0
1.396,4,1,1,1,1,510,1,508,509,0,0
1.397,5,1,1,1,1,511,3,509,507,0,0
1.398,6,1,1,1,1,512,1,505,508,0,0
1.399,7,1,1,1,1,511,1,508,507,0,0
1.4,8,1,1,1,1,511,0,507,509,0,0
1.401,9,1,1,1,1,511,1,508,508,0,0
1.402,10,1,1,1,1,512,1,505,508,0,0
1.403,11,1,1,1,1,511,1,504,510,0,0
1.404,12,1,1,1,1,512,1,513,507,0,0
1.405,13,1,1,1,1,511,3,511,507,0,0
1.406,14,1,1,1,1,511,1,509,508,0,0
1.407,15,1,1,1,1,512,1,512,509,0,0
1.408,0,1,1,1,1,511,0,515,508,0,0
1.409,1,1,1,1,1,511,1,519,507,0,0
1.41,2,1,1,1,1,512,1,513,508,0,0
1.411,3,1,1,1,1,511,1,519,507,0,0
1.412,4,1,1,1,1,510,1,521,508,0,0
1.413,5,1,1,1,1,512,3,508,510,0,0
1.414,6,1,1,1,1,513,1,508,511,0,0
1.415,7,1,1,1,1,511,1,511,508,0,0
1.416,8,1,1,1,1,511,0,510,509,0,0
1.417,9,1,1,1,1,511,1,511,508,0,0
1.418,10,1,1,1,1,511,1,512,508,0,0
1.419,11,1,1,1,1,512,1,512,509,0,0
1.42,12,1,1,1,1,512,1,511,510,0,0
1.421,13,1,1,1,1,512,3,512,508,0,0
1.422,14,1,1,1,1,512,1,506,508,0,0
1.423,15,1,1,1,1,511,1,506,508,0,0
1.424,0,1,1,1,1,512,1,510,509,0,0
1.425,1,1,1,1,1,512,1,513,507,0,0
1.426,2,1,1,1,1,514,1,512,508,0,0
1.427,3,1,1,1,1,511,1,516,508,0,0
1.428,4,1,1,1,1,511,1,511,508,0,0
1.429,5,1,1,1,1,510,3,517,509,0,0
1.43,6,1,1,1,1,512,1,510,509,0,0
1.431,7,1,1,1,1,512,1,506,509,0,0
1.432,8,1,1,1,1,512,1,508,512,0,0
1.433,9,1,1,1,1,512,1,506,508,0,0
1.434,10,1,1,1,1,510,1,507,508,0,0
1.435,11,1,1,1,1,510,1,509,508,0,0
1.436,12,1,1,1,1,511,1,509,509,0,0
1.437,13,1,1,1,1,511,3,510,508,0,0
1.438,14,1,1,1,1,510,1,507,507,0,0
1.439,15,1,1,1,1,512,1,511,509,0,0
1.44,0,1,1,1,1,513,1,512,509,0,0
1.441,1,1,1,1,1,512,1,512,509,0,0
1.442,2,1,1,1,1,512,1,513,507,0,0
1.443,3,1,1,1,1,512,1,506,509,0,0
1.444,4,1,1,1,1,511,1,509,508,0,0
1.445,5,1,1,1,1,510,3,503,507,0,0
1.446,6,1,1,1,1,511,1,506,507,0,0
1.447,7,1,1,1,1,511,1,509,508,0,0
1.448,8,1,1,1,1,511,1,507,508,0,0
1.449,9,1,1,1,1,512,1,516,508,0,0
1.45,10,1,1,1,1,512,1,512,510,0,0
1.451,11,1,1,1,1,513,1,513,508,0,0
1.452,12,1,1,1,1,511,1,520,508,0,0
1.453,13,1,1,1,1,512,3,508,509,0,0
1.454,14,1,1,1,1,512,1,512,510,0,0
1.455,15,1,1,1,1,512,1,510,509,0,0
1.456,0,1,1,1,1,510,1,506,510,0,0
1.457,1,1,1,1,1,512,1,502,507,0,0
1.458,2,1,1,1,1,511,1,505,507,0,0
1.459,3,1,1,1,1,512,1,508,509,0,0
1.46,4,1,1,1,1,513,1,511,506,0,0
1.461,5,1,1,1,1,513,3,508,509,0,0
1.462,6,1,1,1,1,513,1,502,508,0,0
1.463,7,1,1,1,1,512,1,499,510,0,0
1.464,8,1,1,1,1,511,1,509,509,0,0
1.465,9,1,1,1,1,512,1,505,510,0,0
1.466,10,1,1,1,1,510,1,506,510,0,0
1.467,11,1,1,1,1,510,1,510,510,0,0
1.468,12,1,1,1,1,512,1,510,508,0,0
1.469,13,1,1,1,1,510,1,506,508,0,0
1.47,14,1,1,1,1,510,1,508,510,0,0
1.471,15,1,1,1,1,510,1,511,508,0,0
1.472,0,1,1,1,1,510,1,513,507,0,0
1.473,1,1,1,1,1,511,1,513,510,0,0
1.474,2,1,1,1,1,511,1,514,508,0,0
1.475,3,1,1,1,1,513,1,515,508,0,0
1.476,4,1,1,1,1,513,1,513,507,0,0
1.477,5,1,1,1,1,513,1,515,508,0,0
1.478,6,1,1,1,1,510,1,517,509,0,0
1.479,7,1,1,1,1,512,1,511,508,0,0
1.48,8,1,1,1,1,511,1,511,508,0,0
1.481,9,1,1,1,1,513,1,509,507,0,0
1.482,10,1,1,1,1,512,1,509,508,0,0
1.483,11,1,1,1,1,512,1,508,508,0,0
1.484,12,1,1,1,1,512,1,506,508,0,0
1.485,13,1,1,1,1,511,1,514,507,0,0
1.486,14,1,1,1,1,511,1,514,508,0,0
1.487,15,1,1,1,1,510,1,513,508,0,0
1.488,0,1,1,1,1,509,1,506,507,0,0
1.489,1,1,1,1,1,509,1,510,509,0,0
1.49,2,1,1,1,1,514,1,506,507,0,0
1.491,3,1,1,1,1,512,1,507,509,0,0
1.492,4,1,1,1,1,511,1,512,507,0,0
1.493,5,1,1,1,1,511,3,515,509,0,0
1.494,6,1,1,1,1,513,1,511,508,0,0
1.495,7,1,1,1,1,514,1,507,510,0,0
1.496,8,1,1,1,1,514,1,507,508,0,0
1.497,9,1,1,1,1,514,1,503,509,0,0
1.498,10,1,1,1,1,511,1,508,508,0,0
1.499,11,1,1,1,1,509,1,510,507,0,0
1.5,12,1,1,1,1,511,1,509,510,0,0
1.501,13,1,1,1,1,510,3,508,508,0,0
1.502,14,1,1,1,1,511,1,511,509,0,0
1.503,15,1,1,1,1,512,1,512,507,0,0
1.504,0,1,1,1,1,512,1,518,508,0,0
1.505,1,1,1,1,1,511,1,515,508,0,0
1.506,2,1,1,1,1,511,1,516,510,0,0
1.507,3,1,1,1,1,510,1,519,508,0,0
1.508,4,1,1,1,1,511,1,516,510,0,0
1.509,5,1,1,1,1,511,3,510,510,0,0
1.51,6,1,1,1,1,514,1,509,510,0,0
1.511,7,1,1,1,1,512,1,507,510,0,0
1.512,8,1,1,1,1,512,1,505,510,0,0
1.513,9,1,1,1,1,512,1,505,510,0,0
1.514,10,1,1,1,1,510,1,513,508,0,0
1.515,11,1,1,1,1,509,1,516,507,0,0
1.516,12,1,1,1,1,511,1,508,505,0,0
1.517,13,1,1,1,1,513,3,504,511,0,0
1.518,14,1,1,1,1,513,1,514,510,0,0
1.519,15,1,1,1,1,511,1,518,508,0,0
1.52,0,1,1,1,1,512,1,517,508,0,0
1.521,1,1,1,1,1,513,1,513,507,0,0
1.522,2,1,1,1,1,511,1,514,508,0,0
1.523,3,1,1,1,1,511,1,514,507,0,0
1.524,4,1,1,1,1,511,1,511,506,0,0
1.525,5,1,1,1,1,511,3,508,508,0,0
1.526,6,1,1,1,1,512,1,507,509,0,0
1.527,7,1,1,1,1,511,1,503,509,0,0
1.528,8,1,1,1,1,512,1,507,507,0,0
1.529,9,1,1,1,1,510,1,511,508,0,0
1.53,10,1,1,1,1,512,1,510,507,0,0
1.531,11,1,1,1,1,512,1,512,508,0,0
1.532,12,1,1,1,1,512,1,512,508,0,0
1.533,13,1,1,1,1,511,3,510,508,0,0
1.534,14,1,1,1,1,510,1,507,509,0,0
1.535,15,1,1,1,1,510,1,515,511,0,0
1.536,0,1,1,1,1,510,0,516,510,0,0
1.537,1,1,1,1,1,512,1,513,508,0,0
1.538,2,1,1,1,1,511,1,508,509,0,0
1.539,3,1,1,1,1,511,1,508,507,0,0
1.54,4,1,1,1,1,512,1,513,508,0,0
1.541,5,1,1,1,1,512,3,514,508,0,0
1.542,6,1,1,1,1,513,1,513,510,0,0
1.543,7,1,1,1,1,513,1,513,510,0,0
1.544,8,1,1,1,1,511,0,511,507,0,0
1.545,9,1,1,1,1,511,1,511,508,0,0
1.546,10,1,1,1,1,512,1,505,506,0,0
1.547,11,1,1,1,1,512,1,508,508,0,0
1.548,12,1,1,1,1,513,1,502,508,0,0
1.549,13,1,1,1,1,512,3,503,509,0,0
1.55,14,1,1,1,1,512,1,502,509,0,0
1.551,15,1,1,1,1,511,1,504,509,0,0
1.552,0,1,1,1,1,513,0,508,508,0,0
1.553,1,1,1,1,1,512,1,510,508,0,0
1.554,2,1,1,1,1,511,1,512,507,0,0
1.555,3,1,1,1,1,511,1,514,507,0,0
1.556,4,1,1,1,1,511,1,521,507,0,0
1.557,5,1,1,1,1,510,3,518,508,0,0
1.558,6,1,1,1,1,511,1,518,509,0,0
1.559,7,1,1,1,1,511,1,509,508,0,0
1.56,8,1,1,1,1,511,1,506,508,0,0
1.561,9,1,1,1,1,509,1,508,508,0,0
1.562,10,1,1,1,1,512,1,504,507,0,0
1.563,11,1,1,1,1,511,1,511,509,0,0
1.564,12,1,1,1,1,512,1,509,507,0,0
1.565,13,1,1,1,1,512,3,508,508,0,0
1.566,14,1,1,1,1,512,1,509,509,0,0
1.567,15,1,1,1,1,512,1,509,510,0,0
1.568,0,1,1,1,1,511,1,504,508,0,0
1.569,1,1,1,1,1,510,1,504,511,0,0
1.57,2,1,1,1,1,511,1,505,510,0,0
1.571,3,1,1,1,1,512,1,507,510,0,0
1.572,4,1,1,1,1,512,1,509,509,0,0
1.573,5,1,1,1,1,512,3,512,508,0,0
1.574,6,1,1,1,1,510,1,519,508,0,0
1.575,7,1,1,1,1,509,1,515,509,0,0
1.576,8,1,1,1,1,511,1,514,508,0,0
1.577,9,1,1,1,1,511,1,516,507,0,0
1.578,10,1,1,1,1,512,1,514,506,0,0
1.579,11,1,1,1,1,511,1,514,509,0,0
1.58,12,1,1,1,1,512,1,523,508,0,0
1.581,13,1,1,1,1,512,2,517,508,0,0
1.582,14,1,1,1,1,513,1,515,509,0,0
1.583,15,1,1,1,1,511,1,510,510,0,0
1.584,0,1,1,1,1,509,1,506,508,0,0
1.585,1,1,1,1,1,512,1,510,508,0,0
1.586,2,1,1,1,1,511,1,506,508,0,0
1.587,3,1,1,1,1,511,1,511,508,0,0
1.588,4,1,1,1,1,511,1,508,508,0,0
1.589,5,1,1,1,1,512,2,505,508,0,0
1.59,6,1,1,1,1,512,1,504,508,0,0
1.591,7,1,1,1,1,511,1,507,510,0,0
1.592,8,1,1,1,1,512,1,508,508,0,0
1.593,9,1,1,1,1,512,1,512,508,0,0
1.594,10,1,1,1,1,513,1,508,508,0,0
1.595,11,1,1,1,1,512,1,501,510,0,0
1.596,12,1,1,1,1,511,1,509,509,0,0
1.597,13,1,1,1,1,512,3,511,507,0,0
1.598,14,1,1,1,1,513,1,508,506,0,0
1.599,15,1,1,1,1,511,1,510,507,0,0
1.6,0,1,1,1,1,510,1,507,508,0,0
1.601,1,1,1,1,1,510,1,514,508,0,0
1.602,2,1,1,1,1,512,1,513,509,0,0
1.603,3,1,1,1,1,511,1,516,508,0,0
1.604,4,1,1,1,1,512,1,515,509,0,0
1.605,5,1,1,1,1,511,3,523,507,0,0
1.606,6,1,1,1,1,511,1,518,509,0,0
1.607,7,1,1,1,1,511,1,510,508,0,0
1.608,8,1,1,1,1,512,1,507,508,0,0
1.609,9,1,1,1,1,511,1,506,507,0,0
1.61,10,1,1,1,1,510,1,512,509,0,0
1.611,11,1,1,1,1,512,1,508,511,0,0
1.612,12,1,1,1,1,514,1,506,510,0,0
1.613,13,1,1,1,1,512,3,508,509,0,0
1.614,14,1,1,1,1,511,1,506,510,0,0
1.615,15,1,1,1,1,511,1,507,510,0,0
1.616,0,1,1,1,1,513,1,507,508,0,0
1.617,1,1,1,1,1,511,1,506,506,0,0
1.618,2,1,1,1,1,510,1,512,507,0,0
1.619,3,1,1,1,1,511,1,516,509,0,0
1.62,4,1,1,1,1,511,1,514,508,0,0
1.621,5,1,1,1,1,513,3,512,509,0,0
1.622,6,1,1,1,1,511,1,512,510,0,0
1.623,7,1,1,1,1,511,1,506,508,0,0
1.624,8,1,1,1,1,512,0,515,508,0,0
1.625,9,1,1,1,1,512,1,515,507,0,0
1.626,10,1,1,1,1,511,1,515,510,0,0
1.627,11,1,1,1,1,511,1,511,509,0,0
1.628,12,1,1,1,1,512,1,510,510,0,0
1.629,13,1,1,1,1,511,3,511,509,0,0
1.63,14,1,1,1,1,512,1,508,507,0,0
1.631,15,1,1,1,1,511,1,508,506,0,0
1.632,0,1,1,1,1,512,0,510,504,0,0
1.633,1,1,1,1,1,512,1,505,508,0,0
1.634,2,1,1,1,1,511,1,506,508,0,0
1.635,3,1,1,1,1,512,1,502,506,0,0
1.636,4,1,1,1,1,513,1,506,508,0,0
1.637,5,1,1,1,1,511,3,506,510,0,0
1.638,6,1,1,1,1,510,1,511,508,0,0
1.639,7,1,1,1,1,511,1,511,509,0,0
1.64,8,1,1,1,1,510,1,508,508,0,0
1.641,9,1,1,1,1,512,1,514,508,0,0
1.642,10,1,1,1,1,513,1,514,508,0,0
1.643,11,1,1,1,1,512,1,516,508,0,0
1.644,12,1,1,1,1,513,1,516,507,0,0
1.645,13,1,1,1,1,510,3,515,508,0,0
1.646,14,1,1,1,1,511,1,516,509,0,0
1.647,15,1,1,1,1,511,1,512,510,0,0
1.648,0,1,1,1,1,510,1,503,508,0,0
1.649,1,1,1,1,1,513,1,502,509,0,0
1.65,2,1,1,1,1,511,1,504,509,0,0
1.651,3,1,1,1,1,510,1,509,509,0,0
1.652,4,1,1,1,1,511,1,510,506,0,0
1.653,5,1,1,1,1,511,3,509,507,0,0
1.654,6,1,1,1,1,511,1,508,510,0,0
1.655,7,1,1,1,1,512,1,507,509,0,0
1.656,8,1,1,1,1,512,1,511,508,0,0
1.657,9,1,1,1,1,511,1,516,509,0,0
1.658,10,1,1,1,1,512,1,518,510,0,0
1.659,11,1,1,1,1,513,1,513,508,0,0
1.66,12,1,1,1,1,510,1,513,507,0,0
1.661,13,1,1,1,1,512,3,511,508,0,0
1.662,14,1,1,1,1,512,1,513,508,0,0
1.663,15,1,1,1,1,513,1,507,510,0,0
1.664,0,1,1,1,1,513,1,513,509,0,0
1.665,1,1,1,1,1,512,1,515,510,0,0
1.666,2,1,1,1,1,512,1,513,510,0,0
1.667,3,1,1,1,1,512,0,507,509,0,0
1.668,4,1,1,1,1,511,1,510,508,0,0
1.669,5,1,1,1,1,511,3,511,506,0,0
1.67,6,1,1,1,1,510,1,513,508,0,0
1.671,7,1,1,1,1,512,1,514,507,0,0
1.672,8,1,1,1,1,511,1,517,510,0,0
1.673,9,1,1,1,1,510,1,516,509,0,0
1.674,10,1,1,1,1,511,1,511,509,0,0
1.675,11,1,1,1,1,512,0,512,506,0,0
1.676,12,1,1,1,1,511,1,512,506,0,0
1.677,13,1,1,1,1,511,3,506,508,0,0
1.678,14,1,1,1,1,512,1,511,510,0,0
1.679,15,1,1,1,1,511,1,511,507,0,0
1.68,0,1,1,1,1,511,1,508,511,0,0
1.681,1,1,1,1,1,512,1,508,509,0,0
1.682,2,1,1,1,1,513,1,506,508,0,0
1.683,3,1,1,1,1,511,1,500,509,0,0
1.684,4,1,1,1,1,513,1,500,507,0,0
1.685,5,1,1,1,1,511,1,502,505,0,0
1.686,6,1,1,1,1,511,1,508,507,0,0
1.687,7,1,1,1,1,510,1,504,509,0,0
1.688,8,1,1,1,1,510,1,508,506,0,0
1.689,9,1,1,1,1,512,1,510,508,0,0
1.69,10,1,1,1,1,511,1,508,507,0,0
1.691,11,1,1,1,1,510,1,508,510,0,0
1.692,12,1,1,1,1,512,1,511,509,0,0
1.693,13,1,1,1,1,512,1,508,508,0,0
1.694,14,1,1,1,1,511,1,512,510,0,0
1.695,15,1,1,1,1,512,1,513,510,0,0
1.696,0,1,1,1,1,512,1,512,507,0,0
1.697,1,1,1,1,1,512,1,513,509,0,0
1.698,2,1,1,1,1,511,1,517,508,0,0
1.699,3,1,1,1,1,511,1,515,510,0,0
1.7,4,1,1,1,1,512,1,514,508,0,0
1.701,5,1,1,1,1,512,1,512,507,0,0
1.702,6,1,1,1,1,512,1,513,506,0,0
1.703,7,1,1,1,1,512,1,515,508,0,0
1.704,8,1,1,1,1,511,1,513,508,0,0
1.705,9,1,1,1,1,511,1,511,508,0,0
1.706,10,1,1,1,1,513,1,512,508,0,0
1.707,11,1,1,1,1,513,0,512,510,0,0
1.708,12,1,1,1,1,509,1,508,510,0,0
1.709,13,1,1,1,1,510,3,512,509,0,0
1.71,14,1,1,1,1,510,1,505,510,0,0
1.711,15,1,1,1,1,512,1,508,509,0,0
1.712,0,1,1,1,1,512,1,509,510,0,0
1.713,1,1,1,1,1,512,1,506,509,0,0
1.714,2,1,1,1,1,512,1,508,506,0,0
1.715,3,1,1,1,1,512,1,512,509,0,0
1.716,4,1,1,1,1,512,1,509,509,0,0
1.717,5,1,1,1,1,512,3,510,510,0,0
1.718,6,1,1,1,1,513,1,506,508,0,0
1.719,7,1,1,1,1,512,1,515,509,0,0
1.72,8,1,1,1,1,511,1,505,508,0,0
1.721,9,1,1,1,1,511,1,512,510,0,0
1.722,10,1,1,1,1,511,1,512,509,0,0
1.723,11,1,1,1,1,509,1,515,508,0,0
1.724,12,1,1,1,1,511,1,513,510,0,0
1.725,13,1,1,1,1,511,3,510,508,0,0
1.726,14,1,1,1,1,512,1,511,508,0,0
1.727,15,1,1,1,1,511,1,512,509,0,0
1.728,0,1,1,1,1,510,1,513,507,0,0
1.729,1,1,1,1,1,513,1,511,509,0,0
1.73,2,1,1,1,1,511,1,505,510,0,0
1.731,3,1,1,1,1,510,1,507,508,0,0
1.732,4,1,1,1,1,512,1,510,510,0,0
1.733,5,1,1,1,1,510,3,502,507,0,0
1.734,6,1,1,1,1,512,1,505,507,0,0
1.735,7,1,1,1,1,511,1,503,507,0,0
1.736,8,1,1,1,1,512,1,510,507,0,0
1.737,9,1,1,1,1,512,1,515,508,0,0
1.738,10,1,1,1,1,515,1,514,507,0,0
1.739,11,1,1,1,1,511,1,510,509,0,0
1.74,12,1,1,1,1,510,1,513,508,0,0
1.741,13,1,1,1,1,511,3,516,510,0,0
1.742,14,1,1,1,1,511,1,514,507,0,0
1.743,15,1,1,1,1,512,1,511,508,0,0
1.744,0,1,1,1,1,511,1,508,508,0,0
1.745,1,1,1,1,1,511,1,504,507,0,0
1.746,2,1,1,1,1,511,1,507,507,0,0
1.747,3,1,1,1,1,512,1,508,509,0,0
1.748,4,1,1,1,1,512,1,508,507,0,0
1.749,5,1,1,1,1,511,3,508,510,0,0
1.75,6,1,1,1,1,511,1,508,508,0,0
1.751,7,1,1,1,1,510,1,509,505,0,0
1.752,8,1,1,1,1,513,0,513,508,0,0
1.753,9,1,1,1,1,512,1,515,511,0,0
1.754,10,1,1,1,1,512,1,514,511,0,0
1.755,11,1,1,1,1,511,1,513,510,0,0
1.756,12,1,1,1,1,512,1,513,508,0,0
1.757,13,1,1,1,1,512,3,513,509,0,0
1.758,14,1,1,1,1,514,1,518,509,0,0
1.759,15,1,1,1,1,512,1,514,509,0,0
1.76,0,1,1,1,1,512,0,504,509,0,0
1.761,1,1,1,1,1,512,1,512,510,0,0
1.762,2,1,1,1,1,512,1,513,508,0,0
1.763,3,1,1,1,1,512,1,513,508,0,0
1.764,4,1,1,1,1,513,1,510,508,0,0
1.765,5,1,1,1,1,512,3,511,509,0,0
1.766,6,1,1,1,1,512,1,508,509,0,0
1.767,7,1,1,1,1,512,1,505,508,0,0
1.768,8,1,1,1,1,512,0,505,508,0,0
1.769,9,1,1,1,1,509,1,501,507,0,0
1.77,10,1,1,1,1,510,1,503,507,0,0
1.771,11,1,1,1,1,511,1,505,507,0,0
1.772,12,1,1,1,1,511,1,505,508,0,0
1.773,13,1,1,1,1,512,3,508,507,0,0
1.774,14,1,1,1,1,512,1,511,508,0,0
1.775,15,1,1,1,1,511,1,512,507,0,0
1.776,0,1,1,1,1,512,1,512,510,0,0
1.777,1,1,1,1,1,511,1,510,507,0,0
1.778,2,1,1,1,1,511,1,501,510,0,0
1.779,3,1,1,1,1,511,1,509,507,0,0
1.78,4,1,1,1,1,511,1,508,507,0,0
1.781,5,1,1,1,1,512,3,507,510,0,0
1.782,6,1,1,1,1,511,1,510,508,0,0
1.783,7,1,1,1,1,513,1,514,509,0,0
1.784,8,1,1,1,1,509,1,513,510,0,0
1.785,9,1,1,1,1,510,1,513,510,0,0
1.786,10,1,1,1,1,512,1,515,510,0,0
1.787,11,1,1,1,1,513,1,511,508,0,0
1.788,12,1,1,1,1,512,1,514,508,0,0
1.789,13,1,1,1,1,511,3,511,511,0,0
1.79,14,1,1,1,1,512,1,516,508,0,0
1.791,15,1,1,1,1,513,1,519,506,0,0
1.792,0,1,1,1,1,511,1,522,508,0,0
1.793,1,1,1,1,1,512,1,518,507,0,0
1.794,2,1,1,1,1,513,1,513,507,0,0
1.795,3,1,1,1,1,513,1,508,509,0,0
1.796,4,1,1,1,1,511,1,502,507,0,0
1.797,5,1,1,1,1,510,2,504,508,0,0
1.798,6,1,1,1,1,511,1,508,509,0,0
1.799,7,1,1,1,1,511,1,510,508,0,0
1.8,8,1,1,1,1,512,1,512,507,0,0
1.801,9,1,1,1,1,511,1,509,510,0,0
1.802,10,1,1,1,1,512,1,506,508,0,0
1.803,11,1,1,1,1,511,1,508,508,0,0
1.804,12,1,1,1,1,511,1,508,508,0,0
1.805,13,1,1,1,1,513,2,504,507,0,0
1.806,14,1,1,1,1,511,1,505,510,0,0
1.807,15,1,1,1,1,512,1,510,510,0,0
1.808,0,1,1,1,1,511,1,513,508,0,0
1.809,1,1,1,1,1,511,1,512,508,0,0
1.81,2,1,1,1,1,511,1,509,507,0,0
1.811,3,1,1,1,1,511,1,507,511,0,0
1.812,4,1,1,1,1,510,1,506,510,0,0
1.813,5,1,1,1,1,511,2,509,508,0,0
1.814,6,1,1,1,1,514,1,511,508,0,0
1.815,7,1,1,1,1,512,1,512,508,0,0
1.816,8,1,1,1,1,512,1,513,510,0,0
1.817,9,1,1,1,1,512,1,513,510,0,0
1.818,10,1,1,1,1,512,1,509,508,0,0
1.819,11,1,1,1,1,511,1,509,508,0,0
1.82,12,1,1,1,1,509,1,508,510,0,0
1.821,13,1,1,1,1,511,3,509,509,0,0
1.822,14,1,1,1,1,512,1,510,507,0,0
1.823,15,1,1,1,1,511,1,513,507,0,0
1.824,0,1,1,1,1,511,1,519,508,0,0
1.825,1,1,1,1,1,512,1,513,508,0,0
1.826,2,1,1,1,1,509,1,512,507,0,0
1.827,3,1,1,1,1,511,1,518,508,0,0
1.828,4,1,1,1,1,511,1,518,510,0,0
1.829,5,1,1,1,1,512,3,516,507,0,0
1.83,6,1,1,1,1,512,1,514,507,0,0
1.831,7,1,1,1,1,512,1,509,508,0,0
1.832,8,1,1,1,1,512,1,514,509,0,0
1.833,9,1,1,1,1,512,1,515,508,0,0
1.834,10,1,1,1,1,509,1,509,510,0,0
1.835,11,1,1,1,1,512,1,497,508,0,0
1.836,12,1,1,1,1,511,1,503,508,0,0
1.837,13,1,1,1,1,512,3,510,509,0,0
1.838,14,1,1,1,1,513,1,509,508,0,0
1.839,15,1,1,1,1,512,1,509,507,0,0
1.84,0,1,1,1,1,511,0,510,508,0,0
1.841,1,1,1,1,1,509,1,510,508,0,0
1.842,2,1,1,1,1,512,1,510,508,0,0
1.843,3,1,1,1,1,511,1,507,508,0,0
1.844,4,1,1,1,1,511,1,508,508,0,0
1.845,5,1,1,1,1,510,3,512,508,0,0
1.846,6,1,1,1,1,514,1,505,507,0,0
1.847,7,1,1,1,1,513,1,507,507,0,0
1.848,8,1,1,1,1,513,0,505,510,0,0
1.849,9,1,1,1,1,511,1,508,508,0,0
1.85,10,1,1,1,1,512,1,507,510,0,0
1.851,11,1,1,1,1,511,1,515,508,0,0
1.852,12,1,1,1,1,511,1,518,508,0,0
1.853,13,1,1,1,1,512,3,517,509,0,0
1.854,14,1,1,1,1,511,1,516,507,0,0
1.855,15,1,1,1,1,512,1,519,507,0,0
1.856,0,1,1,1,1,511,0,512,507,0,0
1.857,1,1,1,1,1,513,1,505,508,0,0
1.858,2,1,1,1,1,511,1,506,507,0,0
1.859,3,1,1,1,1,512,1,510,508,0,0
1.86,4,1,1,1,1,512,1,506,506,0,0
1.861,5,1,1,1,1,509,3,508,507,0,0
1.862,6,1,1,1,1,513,1,512,508,0,0
1.863,7,1,1,1,1,512,1,511,509,0,0
1.864,8,1,1,1,1,510,1,512,509,0,0
1.865,9,1,1,1,1,511,1,511,509,0,0
1.866,10,1,1,1,1,511,1,511,508,0,0
1.867,11,1,1,1,1,512,1,509,511,0,0
1.868,12,1,1,1,1,512,1,510,510,0,0
1.869,13,1,1,1,1,511,3,503,511,0,0
1.87,14,1,1,1,1,512,1,504,508,0,0
1.871,15,1,1,1,1,510,1,510,509,0,0
1.872,0,1,1,1,1,513,1,515,510,0,0
1.873,1,1,1,1,1,512,1,514,507,0,0
1.874,2,1,1,1,1,510,1,511,509,0,0
1.875,3,1,1,1,1,511,1,512,509,0,0
1.876,4,1,1,1,1,510,1,509,509,0,0
1.877,5,1,1,1,1,512,3,512,509,0,0
1.878,6,1,1,1,1,511,1,516,510,0,0
1.879,7,1,1,1,1,512,1,513,509,0,0
1.88,8,1,1,1,1,513,1,516,509,0,0
1.881,9,1,1,1,1,512,1,508,510,0,0
1.882,10,1,1,1,1,511,1,506,508,0,0
1.883,11,1,1,1,1,509,1,509,508,0,0
1.884,12,1,1,1,1,511,1,509,507,0,0
1.885,13,1,1,1,1,511,3,504,507,0,0
1.886,14,1,1,1,1,512,1,504,508,0,0
1.887,15,1,1,1,1,513,1,507,509,0,0
1.888,0,1,1,1,1,512,1,508,505,0,0
1.889,1,1,1,1,1,511,1,511,508,0,0
1.89,2,1,1,1,1,509,1,515,506,0,0
1.891,3,1,1,1,1,513,1,510,509,0,0
1.892,4,1,1,1,1,513,1,520,508,0,0
1.893,5,1,1,1,1,511,3,523,510,0,0
1.894,6,1,1,1,1,512,1,517,506,0,0
1.895,7,1,1,1,1,512,1,510,508,0,0
1.896,8,1,1,1,1,511,1,515,509,0,0
1.897,9,1,1,1,1,511,1,514,507,0,0
1.898,10,1,1,1,1,512,1,509,506,0,0
1.899,11,1,1,1,1,511,0,510,511,0,0
1.9,12,1,1,1,1,511,1,503,510,0,0
1.901,13,1,1,1,1,513,3,499,508,0,0
1.902,14,1,1,1,1,512,1,503,508,0,0
1.903,15,1,1,1,1,512,1,504,507,0,0
1.904,0,1,1,1,1,515,1,500,510,0,0
1.905,1,1,1,1,1,511,1,504,508,0,0
1.906,2,1,1,1,1,510,1,508,508,0,0
1.907,3,1,1,1,1,510,1,511,508,0,0
1.908,4,1,1,1,1,511,1,507,508,0,0
1.909,5,1,1,1,1,512,1,515,508,0,0
1.91,6,1,1,1,1,513,1,511,509,0,0
1.911,7,1,1,1,1,512,1,508,511,0,0
1.912,8,1,1,1,1,511,1,510,508,0,0
1.913,9,1,1,1,1,513,1,512,510,0,0
1.914,10,1,1,1,1,511,1,510,507,0,0
1.915,11,1,1,1,1,512,1,515,508,0,0
1.916,12,1,1,1,1,509,1,513,509,0,0
1.917,13,1,1,1,1,509,1,510,509,0,0
1.918,14,1,1,1,1,512,1,514,508,0,0
1.919,15,1,1,1,1,510,1,508,509,0,0
1.92,0,1,1,1,1,513,1,511,508,0,0
1.921,1,1,1,1,1,511,1,512,507,0,0
1.922,2,1,1,1,1,512,1,512,508,0,0
1.923,3,1,1,1,1,513,1,510,509,0,0
1.924,4,1,1,1,1,513,1,513,509,0,0
1.925,5,1,1,1,1,512,3,504,508,0,0
1.926,6,1,1,1,1,512,1,506,510,0,0
1.927,7,1,1,1,1,512,1,513,509,0,0
1.928,8,1,1,1,1,512,1,510,509,0,0
1.929,9,1,1,1,1,512,1,514,507,0,0
1.93,10,1,1,1,1,512,1,510,508,0,0
1.931,11,1,1,1,1,512,0,505,511,0,0
1.932,12,1,1,1,1,511,1,508,510,0,0
1.933,13,1,1,1,1,509,3,509,509,0,0
1.934,14,1,1,1,1,512,1,500,509,0,0
1.935,15,1,1,1,1,510,1,500,506,0,0
1.936,0,1,1,1,1,511,1,503,506,0,0
1.937,1,1,1,1,1,512,1,514,507,0,0
1.938,2,1,1,1,1,509,1,515,509,0,0
1.939,3,1,1,1,1,511,1,519,510,0,0
1.94,4,1,1,1,1,510,1,521,509,0,0
1.941,5,1,1,1,1,511,3,518,509,0,0
1.942,6,1,1,1,1,513,1,511,509,0,0
1.943,7,1,1,1,1,511,1,511,509,0,0
1.944,8,1,1,1,1,513,1,505,509,0,0
1.945,9,1,1,1,1,511,1,511,510,0,0
1.946,10,1,1,1,1,510,1,513,508,0,0
1.947,11,1,1,1,1,511,1,508,508,0,0
1.948,12,1,1,1,1,511,1,510,509,0,0
1.949,13,1,1,1,1,511,3,509,508,0,0
1.95,14,1,1,1,1,512,1,508,507,0,0
1.951,15,1,1,1,1,511,1,507,508,0,0
1.952,0,1,1,1,1,512,1,512,511,0,0
1.953,1,1,1,1,1,511,1,515,508,0,0
1.954,2,1,1,1,1,511,1,515,508,0,0
1.955,3,1,1,1,1,511,1,508,507,0,0
1.956,4,1,1,1,1,513,1,509,508,0,0
1.957,5,1,1,1,1,512,3,510,508,0,0
1.958,6,1,1,1,1,513,1,509,510,0,0
1.959,7,1,1,1,1,512,1,513,506,0,0
1.96,8,1,1,1,1,509,1,507,508,0,0
1.961,9,1,1,1,1,511,1,509,508,0,0
1.962,10,1,1,1,1,511,1,511,508,0,0
1.963,11,1,1,1,1,510,1,511,507,0,0
1.964,12,1,1,1,1,511,1,511,506,0,0
1.965,13,1,1,1,1,512,3,512,509,0,0
1.966,14,1,1,1,1,513,1,510,511,0,0
1.967,15,1,1,1,1,515,1,513,510,0,0
1.968,0,1,1,1,1,512,0,510,508,0,0
1.969,1,1,1,1,1,512,1,514,507,0,0
1.97,2,1,1,1,1,511,1,517,510,0,0
1.971,3,1,1,1,1,510,1,508,507,0,0
1.972,4,1,1,1,1,513,1,508,509,0,0
1.973,5,1,1,1,1,512,3,513,508,0,0
1.974,6,1,1,1,1,511,1,514,507,0,0
1.975,7,1,1,1,1,511,1,513,507,0,0
1.976,8,1,1,1,1,512,0,511,508,0,0
1.977,9,1,1,1,1,513,1,515,510,0,0
1.978,10,1,1,1,1,513,1,507,510,0,0
1.979,11,1,1,1,1,514,1,505,510,0,0
1.98,12,1,1,1,1,511,1,509,511,0,0
1.981,13,1,1,1,1,511,3,507,507,0,0
1.982,14,1,1,1,1,511,1,505,508,0,0
1.983,15,1,1,1,1,511,1,509,511,0,0
1.984,0,1,1,1,1,510,0,507,508,0,0
1.985,1,1,1,1,1,512,1,511,508,0,0
1.986,2,1,1,1,1,509,1,508,508,0,0
1.987,3,1,1,1,1,511,1,518,508,0,0
1.988,4,1,1,1,1,511,1,516,508,0,0
1.989,5,1,1,1,1,512,3,518,511,0,0
1.99,6,1,1,1,1,511,1,512,507,0,0
1.991,7,1,1,1,1,512,1,510,507,0,0
1.992,8,1,1,1,1,511,1,510,507,0,0
1.993,9,1,1,1,1,511,1,506,509,0,0
1.994,10,1,1,1,1,512,1,507,510,0,0
1.995,11,1,1,1,1,514,1,507,510,0,0
1.996,12,1,1,1,1,510,1,511,506,0,0
1.997,13,1,1,1,1,511,3,509,508,0,0
1.998,14,1,1,1,1,510,1,508,507,0,0
1.999,15,1,1,1,1,512,1,504,507,0,0
2.0,0,1,1,1,1,513,1,506,510,0,0
2.001,1,1,1,1,1,512,1,506,507,0,0
2.002,2,1,1,1,1,512,1,503,508,0,0
2.003,3,1,1,1,1,512,1,504,510,0,0
2.004,4,1,1,1,1,509,1,506,508,0,0
2.005,5,1,1,1,1,513,3,513,507,0,0
2.006,6,1,1,1,1,513,1,515,508,0,0
2.007,7,1,1,1,1,512,1,513,509,0,0
2.008,8,1,1,1,1,510,1,510,508,0,0
2.009,9,1,1,1,1,511,1,509,506,0,0
2.01,10,1,1,1,1,510,1,518,508,0,0
2.011,11,1,1,1,1,511,1,513,509,0,0
2.012,12,1,1,1,1,513,1,519,510,0,0
2.013,13,1,1,1,1,513,2,512,509,0,0
2.014,14,1,1,1,1,513,1,513,508,0,0
2.015,15,1,1,1,1,512,1,509,508,0,0
2.016,0,1,1,1,1,512,1,503,509,0,0
2.017,1,1,1,1,1,511,1,504,508,0,0
2.018,2,1,1,1,1,511,1,508,507,0,0
2.019,3,1,1,1,1,511,1,509,509,0,0
2.02,4,1,1,1,1,513,1,510,510,0,0
2.021,5,1,1,1,1,512,2,512,510,0,0
2.022,6,1,1,1,1,512,1,514,509,0,0
2.023,7,1,1,1,1,512,1,511,509,0,0
2.024,8,1,1,1,1,511,1,510,507,0,0
2.025,9,1,1,1,1,512,1,511,508,0,0
2.026,10,1,1,1,1,511,1,511,507,0,0
2.027,11,1,1,1,1,513,1,518,508,0,0
2.028,12,1,1,1,1,513,1,514,509,0,0
2.029,13,1,1,1,1,512,2,513,508,0,0
2.03,14,1,1,1,1,511,1,513,509,0,0
2.031,15,1,1,1,1,510,1,514,509,0,0
2.032,0,1,1,1,1,511,1,514,508,0,0
2.033,1,1,1,1,1,511,1,512,510,0,0
2.034,2,1,1,1,1,512,1,509,508,0,0
2.035,3,1,1,1,1,512,1,509,507,0,0
2.036,4,1,1,1,1,512,1,514,509,0,0
2.037,5,1,1,1,1,510,3,512,508,0,0
2.038,6,1,1,1,1,513,1,515,506,0,0
2.039,7,1,1,1,1,512,1,519,509,0,0
2.04,8,1,1,1,1,510,1,516,508,0,0
2.041,9,1,1,1,1,510,1,514,508,0,0
2.042,10,1,1,1,1,511,1,512,510,0,0
2.043,11,1,1,1,1,512,1,514,508,0,0
2.044,12,1,1,1,1,511,1,505,508,0,0
2.045,13,1,1,1,1,511,3,505,506,0,0
2.046,14,1,1,1,1,511,1,500,508,0,0
2.047,15,1,1,1,1,512,1,507,508,0,0
2.048,0,1,1,1,1,511,1,513,506,0,0
2.049,1,1,1,1,1,510,1,510,509,0,0
2.05,2,1,1,1,1,511,1,504,509,0,0
2.051,3,1,1,1,1,512,1,503,509,0,0
2.052,4,1,1,1,1,513,1,504,511,0,0
2.053,5,1,1,1,1,512,3,509,510,0,0
2.054,6,1,1,1,1,512,1,515,509,0,0
2.055,7,1,1,1,1,512,1,513,508,0,0
2.056,8,1,1,1,1,511,0,511,509,0,0
2.057,9,1,1,1,1,511,1,508,507,0,0
2.058,10,1,1,1,1,513,1,512,508,0,0
2.059,11,1,1,1,1,511,1,510,508,0,0
2.06,12,1,1,1,1,511,1,508,507,0,0
2.061,13,1,1,1,1,511,3,507,507,0,0
2.062,14,1,1,1,1,510,1,510,509,0,0
2.063,15,1,1,1,1,511,1,513,507,0,0
2.064,0,1,1,1,1,512,0,513,511,0,0
2.065,1,1,1,1,1,512,1,507,507,0,0
2.066,2,1,1,1,1,511,1,510,509,0,0
2.067,3,1,1,1,1,511,1,511,511,0,0
2.068,4,1,1,1,1,509,1,505,510,0,0
2.069,5,1,1,1,1,511,3,502,508,0,0
2.07,6,1,1,1,1,511,1,504,506,0,0
2.071,7,1,1,1,1,512,1,513,508,0,0
2.072,8,1,1,1,1,512,0,510,507,0,0
2.073,9,1,1,1,1,512,1,512,510,0,0
2.074,10,1,1,1,1,512,1,514,509,0,0
2.075,11,1,1,1,1,511,1,506,509,0,0
2.076,12,1,1,1,1,513,1,511,508,0,0
2.077,13,1,1,1,1,511,3,512,508,0,0
2.078,14,1,1,1,1,511,1,510,510,0,0
2.079,15,1,1,1,1,511,1,515,507,0,0
2.08,0,1,1,1,1,513,1,512,507,0,0
2.081,1,1,1,1,1,512,1,509,506,0,0
2.082,2,1,1,1,1,510,1,508,509,0,0
2.083,3,1,1,1,1,512,1,505,508,0,0
2.084,4,1,1,1,1,512,1,508,509,0,0
2.085,5,1,1,1,1,512,3,508,508,0,0
2.086,6,1,1,1,1,510,1,504,507,0,0
2.087,7,1,1,1,1,513,1,510,511,0,0
2.088,8,1,1,1,1,512,1,513,510,0,0
2.089,9,1,1,1,1,510,1,513,510,0,0
2.09,10,1,1,1,1,511,1,518,508,0,0
2.091,11,1,1,1,1,511,1,515,509,0,0
2.092,12,1,1,1,1,512,1,511,510,0,0
2.093,13,1,1,1,1,512,3,513,511,0,0
2.094,14,1,1,1,1,512,1,514,508,0,0
2.095,15,1,1,1,1,511,1,511,507,0,0
2.096,0,1,1,1,1,513,1,510,507,0,0
2.097,1,1,1,1,1,511,1,504,507,0,0
2.098,2,1,1,1,1,511,1,504,507,0,0
2.099,3,1,1,1,1,509,1,508,508,0,0
2.1,4,1,1,1,1,512,1,510,510,0,0
2.101,5,1,1,1,1,514,3,509,508,0,0
2.102,6,1,1,1,1,512,1,511,509,0,0
2.103,7,1,1,1,1,512,1,505,509,0,0
2.104,8,1,1,1,1,510,1,507,509,0,0
2.105,9,1,1,1,1,510,1,512,508,0,0
2.106,10,1,1,1,1,510,1,515,506,0,0
2.107,11,1,1,1,1,512,0,518,508,0,0
2.108,12,1,1,1,1,511,1,515,507,0,0
2.109,13,1,1,1,1,510,3,515,507,0,0
2.11,14,1,1,1,1,511,1,516,508,0,0
2.111,15,1,1,1,1,513,1,509,507,0,0
2.112,0,1,1,1,1,511,1,507,508,0,0
2.113,1,1,1,1,1,512,1,507,508,0,0
2.114,2,1,1,1,1,512,1,509,507,0,0
2.115,3,1,1,1,1,513,1,511,508,0,0
2.116,4,1,1,1,1,511,1,508,509,0,0
2.117,5,1,1,1,1,511,3,504,509,0,0
2.118,6,1,1,1,1,510,1,507,510,0,0
2.119,7,1,1,1,1,511,1,513,510,0,0
2.12,8,1,1,1,1,512,1,509,510,0,0
2.121,9,1,1,1,1,512,1,505,508,0,0
2.122,10,1,1,1,1,511,1,509,510,0,0
2.123,11,1,1,1,1,512,1,513,511,0,0
2.124,12,1,1,1,1,512,1,515,510,0,0
2.125,13,1,1,1,1,511,1,516,508,0,0
2.126,14,1,1,1,1,512,1,514,508,0,0
2.127,15,1,1,1,1,513,1,512,508,0,0
2.128,0,1,1,1,1,511,1,513,506,0,0
2.129,1,1,1,1,1,511,1,510,505,0,0
2.13,2,1,1,1,1,514,1,512,508,0,0
2.131,3,1,1,1,1,512,1,507,510,0,0
2.132,4,1,1,1,1,511,1,509,508,0,0
2.133,5,1,1,1,1,512,1,507,508,0,0
2.134,6,1,1,1,1,512,1,508,508,0,0
2.135,7,1,1,1,1,513,1,504,508,0,0
2.136,8,1,1,1,1,512,1,509,508,0,0
2.137,9,1,1,1,1,511,1,509,507,0,0
2.138,10,1,1,1,1,512,1,510,508,0,0
2.139,11,1,1,1,1,510,1,508,508,0,0
2.14,12,1,1,1,1,511,1,508,508,0,0
2.141,13,1,1,1,1,511,1,514,511,0,0
2.142,14,1,1,1,1,510,1,518,510,0,0
2.143,15,1,1,1,1,510,1,517,507,0,0
2.144,0,1,1,1,1,511,1,513,509,0,0
2.145,1,1,1,1,1,510,1,510,509,0,0
2.146,2,1,1,1,1,511,1,506,509,0,0
2.147,3,1,1,1,1,512,0,508,510,0,0
2.148,4,1,1,1,1,511,1,508,509,0,0
2.149,5,1,1,1,1,511,3,504,505,0,0
2.15,6,1,1,1,1,511,1,506,506,0,0
2.151,7,1,1,1,1,511,1,508,507,0,0
2.152,8,1,1,1,1,514,1,510,507,0,0
2.153,9,1,1,1,1,512,1,515,511,0,0
2.154,10,1,1,1,1,510,1,512,507,0,0
2.155,11,1,1,1,1,512,0,514,507,0,0
2.156,12,1,1,1,1,511,1,520,508,0,0
2.157,13,1,1,1,1,511,3,519,510,0,0
2.158,14,1,1,1,1,511,1,513,511,0,0
2.159,15,1,1,1,1,514,1,511,510,0,0
2.16,0,1,1,1,1,513,1,511,510,0,0
2.161,1,1,1,1,1,512,1,507,507,0,0
2.162,2,1,1,1,1,508,1,504,506,0,0
2.163,3,1,1,1,1,511,1,508,507,0,0
2.164,4,1,1,1,1,510,1,510,507,0,0
2.165,5,1,1,1,1,511,3,507,509,0,0
2.166,6,1,1,1,1,510,1,506,510,0,0
2.167,7,1,1,1,1,511,1,503,510,0,0
2.168,8,1,1,1,1,511,1,507,510,0,0
2.169,9,1,1,1,1,511,1,505,508,0,0
2.17,10,1,1,1,1,512,1,509,510,0,0
2.171,11,1,1,1,1,511,1,518,508,0,0
2.172,12,1,1,1,1,511,1,518,509,0,0
2.173,13,1,1,1,1,512,3,519,508,0,0
2.174,14,1,1,1,1,513,1,513,506,0,0
2.175,15,1,1,1,1,512,1,504,508,0,0
2.176,0,1,1,1,1,512,1,511,508,0,0
2.177,1,1,1,1,1,511,1,514,509,0,0
2.178,2,1,1,1,1,512,1,502,508,0,0
2.179,3,1,1,1,1,509,1,502,507,0,0
2.18,4,1,1,1,1,512,1,503,509,0,0
2.181,5,1,1,1,1,511,3,502,508,0,0
2.182,6,1,1,1,1,511,1,504,508,0,0
2.183,7,1,1,1,1,511,1,508,509,0,0
2.184,8,1,1,1,1,511,1,512,509,0,0
2.185,9,1,1,1,1,513,1,510,507,0,0
2.186,10,1,1,1,1,513,1,504,508,0,0
2.187,11,1,1,1,1,511,1,511,510,0,0
2.188,12,1,1,1,1,511,1,510,509,0,0
2.189,13,1,1,1,1,512,3,519,508,0,0
2.19,14,1,1,1,1,512,1,512,510,0,0
2.191,15,1,1,1,1,511,1,513,508,0,0
2.192,0,1,1,1,1,512,0,513,507,0,0
2.193,1,1,1,1,1,510,1,513,509,0,0
2.194,2,1,1,1,1,512,1,512,509,0,0
2.195,3,1,1,1,1,512,1,517,509,0,0
2.196,4,1,1,1,1,511,1,513,506,0,0
2.197,5,1,1,1,1,512,3,512,509,0,0
2.198,6,1,1,1,1,512,1,508,510,0,0
2.199,7,1,1,1,1,512,1,508,509,0,0
2.2,8,1,1,1,1,511,0,509,509,0,0
2.201,9,1,1,1,1,512,1,513,509,0,0
2.202,10,1,1,1,1,512,1,515,509,0,0
2.203,11,1,1,1,1,511,1,515,508,0,0
2.204,12,1,1,1,1,512,1,511,507,0,0
2.205,13,1,1,1,1,513,3,514,509,0,0
2.206,14,1,1,1,1,510,1,511,509,0,0
2.207,15,1,1,1,1,512,1,509,508,0,0
2.208,0,1,1,1,1,510,1,512,508,0,0
2.209,1,1,1,1,1,512,1,509,506,0,0
2.21,2,1,1,1,1,512,1,513,507,0,0
2.211,3,1,1,1,1,511,1,511,507,0,0
2.212,4,1,1,1,1,511,1,510,507,0,0
2.213,5,1,1,1,1,513,3,506,509,0,0
2.214,6,1,1,1,1,512,1,503,508,0,0
2.215,7,1,1,1,1,511,1,502,508,0,0
2.216,8,1,1,1,1,512,1,512,507,0,0
2.217,9,1,1,1,1,511,1,513,508,0,0
2.218,10,1,1,1,1,512,1,512,509,0,0
2.219,11,1,1,1,1,509,1,514,508,0,0
2.22,12,1,1,1,1,511,1,508,508,0,0
2.221,13,1,1,1,1,512,3,504,509,0,0
2.222,14,1,1,1,1,512,1,508,508,0,0
2.223,15,1,1,1,1,512,1,508,507,0,0
2.224,0,1,1,1,1,513,1,507,510,0,0
2.225,1,1,1,1,1,511,1,511,508,0,0
2.226,2,1,1,1,1,511,1,514,508,0,0
2.227,3,1,1,1,1,513,1,515,511,0,0
2.228,4,1,1,1,1,510,1,513,507,0,0
2.229,5,1,1,1,1,511,3,507,508,0,0
2.23,6,1,1,1,1,512,1,508,510,0,0
2.231,7,1,1,1,1,511,1,509,508,0,0
2.232,8,1,1,1,1,510,1,512,510,0,0
2.233,9,1,1,1,1,511,1,512,508,0,0
2.234,10,1,1,1,1,511,1,511,511,0,0
2.235,11,1,1,1,1,512,1,512,510,0,0
2.236,12,1,1,1,1,511,1,513,508,0,0
2.237,13,1,1,1,1,511,2,513,509,0,0
2.238,14,1,1,1,1,511,1,504,506,0,0
2.239,15,1,1,1,1,511,1,504,509,0,0
2.24,0,1,1,1,1,511,1,508,511,0,0
2.241,1,1,1,1,1,511,1,512,509,0,0
2.242,2,1,1,1,1,511,1,510,505,0,0
2.243,3,1,1,1,1,512,1,512,507,0,0
2.244,4,1,1,1,1,512,1,513,509,0,0
2.245,5,1,1,1,1,513,2,513,508,0,0
2.246,6,1,1,1,1,512,1,511,507,0,0
2.247,7,1,1,1,1,513,1,513,508,0,0
2.248,8,1,1,1,1,511,1,506,510,0,0
2.249,9,1,1,1,1,509,1,508,506,0,0
2.25,10,1,1,1,1,512,1,507,509,0,0
2.251,11,1,1,1,1,512,1,505,510,0,0
2.252,12,1,1,1,1,510,1,504,509,0,0
2.253,13,1,1,1,1,511,3,500,508,0,0
2.254,14,1,1,1,1,508,1,500,509,0,0
2.255,15,1,1,1,1,512,1,504,509,0,0
2.256,0,1,1,1,1,511,1,507,509,0,0
2.257,1,1,1,1,1,511,1,515,507,0,0
2.258,2,1,1,1,1,511,1,514,508,0,0
2.259,3,1,1,1,1,509,1,514,508,0,0
2.26,4,1,1,1,1,511,1,517,509,0,0
2.261,5,1,1,1,1,511,3,515,509,0,0
2.262,6,1,1,1,1,513,1,513,510,0,0
2.263,7,1,1,1,1,511,1,509,509,0,0
2.264,8,1,1,1,1,512,1,515,508,0,0
2.265,9,1,1,1,1,511,1,508,507,0,0
2.266,10,1,1,1,1,513,1,513,508,0,0
2.267,11,1,1,1,1,513,1,507,510,0,0
2.268,12,1,1,1,1,513,1,508,508,0,0
2.269,13,1,1,1,1,513,3,513,508,0,0
2.27,14,1,1,1,1,512,1,515,509,0,0
2.271,15,1,1,1,1,512,1,515,508,0,0
2.272,0,1,1,1,1,511,1,511,510,0,0
2.273,1,1,1,1,1,510,1,513,507,0,0
2.274,2,1,1,1,1,510,1,519,508,0,0
2.275,3,1,1,1,1,510,1,518,508,0,0
2.276,4,1,1,1,1,513,1,514,508,0,0
2.277,5,1,1,1,1,512,3,513,508,0,0
2.278,6,1,1,1,1,511,1,509,508,0,0
2.279,7,1,1,1,1,513,1,514,510,0,0
2.28,8,1,1,1,1,512,0,513,508,0,0
2.281,9,1,1,1,1,511,1,509,508,0,0
2.282,10,1,1,1,1,510,1,505,508,0,0
2.283,11,1,1,1,1,511,1,507,509,0,0
2.284,12,1,1,1,1,512,1,505,508,0,0
2.285,13,1,1,1,1,511,3,509,509,0,0
2.286,14,1,1,1,1,513,1,512,507,0,0
2.287,15,1,1,1,1,512,1,514,510,0,0
2.288,0,1,1,1,1,512,0,510,508,0,0
2.289,1,1,1,1,1,512,1,506,508,0,0
2.29,2,1,1,1,1,508,1,505,507,0,0
2.291,3,1,1,1,1,512,1,512,511,0,0
2.292,4,1,1,1,1,511,1,505,507,0,0
2.293,5,1,1,1,1,510,3,512,509,0,0
2.294,6,1,1,1,1,513,1,513,509,0,0
2.295,7,1,1,1,1,510,1,510,507,0,0
2.296,8,1,1,1,1,512,1,506,508,0,0
2.297,9,1,1,1,1,512,1,506,509,0,0
2.298,10,1,1,1,1,512,1,516,509,0,0
2.299,11,1,1,1,1,511,1,515,509,0,0
2.3,12,1,1,1,1,512,1,506,508,0,0
2.301,13,1,1,1,1,513,3,507,508,0,0
2.302,14,1,1,1,1,511,1,510,508,0,0
2.303,15,1,1,1,1,510,1,506,509,0,0
2.304,0,1,1,1,1,511,1,506,508,0,0
2.305,1,1,1,1,1,513,1,510,509,0,0
2.306,2,1,1,1,1,511,1,514,509,0,0
2.307,3,1,1,1,1,513,1,512,511,0,0
2.308,4,1,1,1,1,510,1,513,508,0,0
2.309,5,1,1,1,1,511,3,510,505,0,0
2.31,6,1,1,1,1,513,1,509,507,0,0
2.311,7,1,1,1,1,513,1,501,508,0,0
2.312,8,1,1,1,1,512,1,502,508,0,0
2.313,9,1,1,1,1,511,1,506,509,0,0
2.314,10,1,1,1,1,512,1,508,508,0,0
2.315,11,1,1,1,1,511,1,508,507,0,0
2.316,12,1,1,1,1,512,1,513,507,0,0
2.317,13,1,1,1,1,512,3,515,508,0,0
2.318,14,1,1,1,1,511,1,516,508,0,0
2.319,15,1,1,1,1,511,1,513,508,0,0
2.32,0,1,1,1,1,512,1,517,509,0,0
2.321,1,1,1,1,1,510,1,522,509,0,0
2.322,2,1,1,1,1,511,1,520,510,0,0
2.323,3,1,1,1,1,512,1,519,508,0,0
2.324,4,1,1,1,1,511,1,515,506,0,0
2.325,5,1,1,1,1,510,3,513,510,0,0
2.326,6,1,1,1,1,515,1,514,512,0,0
2.327,7,1,1,1,1,514,1,515,508,0,0
2.328,8,1,1,1,1,512,1,506,508,0,0
2.329,9,1,1,1,1,511,1,504,509,0,0
2.33,10,1,1,1,1,510,1,507,507,0,0
2.331,11,1,1,1,1,511,0,505,505,0,0
2.332,12,1,1,1,1,511,1,508,509,0,0
2.333,13,1,1,1,1,512,3,513,509,0,0
2.334,14,1,1,1,1,513,1,510,510,0,0
2.335,15,1,1,1,1,511,1,511,508,0,0
2.336,0,1,1,1,1,510,1,512,509,0,0
2.337,1,1,1,1,1,512,1,510,508,0,0
2.338,2,1,1,1,1,511,1,507,508,0,0
2.339,3,1,1,1,1,513,1,506,509,0,0
2.34,4,1,1,1,1,512,1,504,506,0,0
2.341,5,1,1,1,1,512,1,512,511,0,0
2.342,6,1,1,1,1,512,1,513,510,0,0
2.343,7,1,1,1,1,512,1,504,510,0,0
2.344,8,1,1,1,1,512,1,501,509,0,0
2.345,9,1,1,1,1,514,1,505,509,0,0
2.346,10,1,1,1,1,512,1,505,510,0,0
2.347,11,1,1,1,1,512,1,510,508,0,0
2.348,12,1,1,1,1,509,1,511,507,0,0
2.349,13,1,1,1,1,511,1,507,506,0,0
2.35,14,1,1,1,1,512,1,510,510,0,0
2.351,15,1,1,1,1,508,1,508,508,0,0
2.352,0,1,1,1,1,511,1,508,510,0,0
2.353,1,1,1,1,1,510,1,510,509,0,0
2.354,2,1,1,1,1,512,1,515,508,0,0
2.355,3,1,1,1,1,510,1,512,507,0,0
2.356,4,1,1,1,1,513,1,512,508,0,0
2.357,5,1,1,1,1,511,1,516,508,0,0
2.358,6,1,1,1,1,512,1,514,506,0,0
2.359,7,1,1,1,1,511,1,513,509,0,0
2.36,8,1,1,1,1,511,1,517,508,0,0
2.361,9,1,1,1,1,511,1,526,507,0,0
2.362,10,1,1,1,1,510,1,519,507,0,0
2.363,11,1,1,1,1,512,1,518,508,0,0
2.364,12,1,1,1,1,511,1,508,509,0,0
2.365,13,1,1,1,1,511,3,506,508,0,0
2.366,14,1,1,1,1,512,1,506,508,0,0
2.367,15,1,1,1,1,510,1,510,508,0,0
2.368,0,1,1,1,1,511,1,500,509,0,0
2.369,1,1,1,1,1,510,1,503,510,0,0
2.37,2,1,1,1,1,512,1,501,510,0,0
2.371,3,1,1,1,1,511,0,503,510,0,0
2.372,4,1,1,1,1,511,1,509,509,0,0
2.373,5,1,1,1,1,512,3,511,507,0,0
2.374,6,1,1,1,1,511,1,512,509,0,0
2.375,7,1,1,1,1,511,1,507,510,0,0
2.376,8,1,1,1,1,513,1,507,508,0,0
2.377,9,1,1,1,1,513,1,504,508,0,0
2.378,10,1,1,1,1,513,1,506,508,0,0
2.379,11,1,1,1,1,512,0,513,509,0,0
2.38,12,1,1,1,1,511,1,510,507,0,0
2.381,13,1,1,1,1,511,3,511,508,0,0
2.382,14,1,1,1,1,513,1,511,508,0,0
2.383,15,1,1,1,1,512,1,503,510,0,0
2.384,0,1,1,1,1,513,1,509,510,0,0
2.385,1,1,1,1,1,511,1,507,509,0,0
2.386,2,1,1,1,1,513,1,515,508,0,0
2.387,3,1,1,1,1,510,1,513,508,0,0
2.388,4,1,1,1,1,510,1,514,507,0,0
2.389,5,1,1,1,1,510,3,510,506,0,0
2.39,6,1,1,1,1,512,1,510,507,0,0
2.391,7,1,1,1,1,512,1,515,507,0,0
2.392,8,1,1,1,1,512,1,513,508,0,0
2.393,9,1,1,1,1,513,1,515,511,0,0
2.394,10,1,1,1,1,511,1,511,509,0,0
2.395,11,1,1,1,1,512,1,508,507,0,0
2.396,12,1,1,1,1,513,1,509,510,0,0
2.397,13,1,1,1,1,511,3,505,507,0,0
2.398,14,1,1,1,1,510,1,504,505,0,0
2.399,15,1,1,1,1,511,1,508,507,0,0
2.4,0,1,1,1,1,510,1,506,508,0,0
2.401,1,1,1,1,1,512,1,508,509,0,0
2.402,2,1,1,1,1,512,1,509,508,0,0
2.403,3,1,1,1,1,512,1,507,511,0,0
2.404,4,1,1,1,1,512,1,508,511,0,0
2.405,5,1,1,1,1,512,3,510,509,0,0
2.406,6,1,1,1,1,512,1,510,509,0,0
2.407,7,1,1,1,1,512,1,515,509,0,0
2.408,8,1,1,1,1,511,0,511,508,0,0
2.409,9,1,1,1,1,511,1,509,508,0,0
2.41,10,1,1,1,1,512,1,510,506,0,0
2.411,11,1,1,1,1,512,1,512,508,0,0
2.412,12,1,1,1,1,512,1,508,509,0,0
2.413,13,1,1,1,1,511,3,505,509,0,0
2.414,14,1,1,1,1,510,1,505,508,0,0
2.415,15,1,1,1,1,510,1,504,508,0,0
2.416,0,1,1,1,1,511,0,508,508,0,0
2.417,1,1,1,1,1,511,1,507,509,0,0
2.418,2,1,1,1,1,510,1,511,510,0,0
2.419,3,1,1,1,1,513,1,507,509,0,0
2.42,4,1,1,1,1,510,1,508,508,0,0
2.421,5,1,1,1,1,512,3,516,508,0,0
2.422,6,1,1,1,1,512,1,514,508,0,0
2.423,7,1,1,1,1,511,1,520,507,0,0
2.424,8,1,1,1,1,513,0,512,506,0,0
2.425,9,1,1,1,1,512,1,514,508,0,0
2.426,10,1,1,1,1,511,1,515,506,0,0
2.427,11,1,1,1,1,513,1,510,509,0,0
2.428,12,1,1,1,1,511,1,516,509,0,0
2.429,13,1,1,1,1,514,3,513,506,0,0
2.43,14,1,1,1,1,517,1,516,507,0,0
2.431,15,1,1,1,1,513,1,519,505,0,0
2.432,0,1,1,1,1,512,1,514,507,0,0
2.433,1,1,1,1,1,512,1,511,509,0,0
2.434,2,1,1,1,1,511,1,505,509,0,0
2.435,3,1,1,1,1,509,1,512,509,0,0
2.436,4,1,1,1,1,510,1,506,510,0,0
2.437,5,1,1,1,1,507,3,506,511,0,0
2.438,6,1,1,1,1,510,1,506,511,0,0
2.439,7,1,1,1,1,507,1,507,510,0,0
2.44,8,1,1,1,1,510,1,512,510,0,0
2.441,9,1,1,1,1,511,1,513,510,0,0
2.442,10,1,1,1,1,512,1,510,509,0,0
2.443,11,1,1,1,1,510,1,512,509,0,0
2.444,12,1,1,1,1,511,1,510,508,0,0
2.445,13,1,1,1,1,512,3,504,511,0,0
2.446,14,1,1,1,1,512,1,504,509,0,0
2.447,15,1,1,1,1,511,1,510,508,0,0
2.448,0,1,1,1,1,510,1,513,509,0,0
2.449,1,1,1,1,1,511,1,512,508,0,0
2.45,2,1,1,1,1,510,1,509,508,0,0
2.451,3,1,1,1,1,512,1,515,509,0,0
2.452,4,1,1,1,1,512,1,513,509,0,0
2.453,5,1,1,1,1,511,2,512,509,0,0
2.454,6,1,1,1,1,512,1,511,508,0,0
2.455,7,1,1,1,1,513,1,520,507,0,0
2.456,8,1,1,1,1,513,1,519,507,0,0
2.457,9,1,1,1,1,514,1,515,506,0,0
2.458,10,1,1,1,1,512,1,507,504,0,0
2.459,11,1,1,1,1,512,1,513,505,0,0
2.46,12,1,1,1,1,514,1,509,505,0,0
2.461,13,1,1,1,1,513,2,509,508,0,0
2.462,14,1,1,1,1,512,1,507,507,0,0
2.463,15,1,1,1,1,512,1,511,506,0,0
2.464,0,1,1,1,1,511,1,506,509,0,0
2.465,1,1,1,1,1,512,1,504,509,0,0
2.466,2,1,1,1,1,508,1,500,510,0,0
2.467,3,1,1,1,1,511,1,503,510,0,0
2.468,4,1,1,1,1,510,1,504,510,0,0
2.469,5,1,1,1,1,510,2,508,510,0,0
2.47,6,1,1,1,1,509,1,508,511,0,0
2.471,7,1,1,1,1,510,1,510,509,0,0
2.472,8,1,1,1,1,514,1,508,509,0,0
2.473,9,1,1,1,1,511,1,511,509,0,0
2.474,10,1,1,1,1,509,1,512,510,0,0
2.475,11,1,1,1,1,508,1,512,509,0,0
2.476,12,1,1,1,1,508,1,515,509,0,0
2.477,13,1,1,1,1,510,3,508,508,0,0
2.478,14,1,1,1,1,512,1,508,511,0,0
2.479,15,1,1,1,1,513,1,513,511,0,0
2.48,0,1,1,1,1,512,1,507,509,0,0
2.481,1,1,1,1,1,511,1,508,508,0,0
2.482,2,1,1,1,1,512,1,512,508,0,0
2.483,3,1,1,1,1,514,1,508,508,0,0
2.484,4,1,1,1,1,514,1,514,508,0,0
2.485,5,1,1,1,1,512,3,516,507,0,0
2.486,6,1,1,1,1,512,1,515,508,0,0
2.487,7,1,1,1,1,512,1,514,507,0,0
2.488,8,1,1,1,1,512,1,508,509,0,0
2.489,9,1,1,1,1,513,1,507,507,0,0
2.49,10,1,1,1,1,510,1,511,507,0,0
2.491,11,1,1,1,1,511,1,515,507,0,0
2.492,12,1,1,1,1,513,1,517,510,0,0
2.493,13,1,1,1,1,512,3,518,508,0,0
2.494,14,1,1,1,1,514,1,517,505,0,0
2.495,15,1,1,1,1,511,1,521,507,0,0
2.496,0,1,1,1,1,513,0,519,499,0,0
2.497,1,1,1,1,1,513,1,529,498,0,0
2.498,2,1,1,1,1,522,1,535,500,0,0
2.499,3,1,1,1,1,522,1,536,499,0,0
2.5,4,1,1,1,1,518,1,523,499,0,0
2.501,5,1,1,1,1,517,3,514,506,0,0
2.502,6,1,1,1,1,518,1,504,509,0,0
2.503,7,1,1,1,1,512,1,498,515,0,0
2.504,8,1,1,1,1,510,0,496,523,0,0
2.505,9,1,1,1,1,505,1,486,525,0,0
2.506,10,1,1,1,1,504,1,478,521,0,0
2.507,11,1,1,1,1,499,1,477,521,0,0
2.508,12,1,1,1,1,491,1,482,523,0,0
2.509,13,1,1,1,1,487,3,484,523,0,0
2.51,14,1,1,1,1,490,1,491,516,0,0
2.511,15,1,1,1,1,494,1,499,510,0,0
2.512,0,1,1,1,1,503,0,509,504,0,0
2.513,1,1,1,1,1,512,1,513,501,0,0
2.514,2,1,1,1,1,515,1,512,500,0,0
2.515,3,1,1,1,1,519,1,518,504,0,0
2.516,4,1,1,1,1,522,1,520,507,0,0
2.517,5,1,1,1,1,523,3,515,509,0,0
2.518,6,1,1,1,1,521,1,516,514,0,0
2.519,7,1,1,1,1,519,1,515,507,0,0
2.52,8,1,1,1,1,519,1,513,495,0,0
2.521,9,1,1,1,1,523,1,517,499,0,0
2.522,10,1,1,1,1,517,1,529,497,0,0
2.523,11,1,1,1,1,515,1,524,496,0,0
2.524,12,1,1,1,1,515,1,519,496,0,0
2.525,13,1,1,1,1,515,3,519,502,0,0
2.526,14,1,1,1,1,519,1,518,504,0,0
2.527,15,1,1,1,1,515,1,516,505,0,0
2.528,0,1,1,1,1,517,1,512,512,0,0
2.529,1,1,1,1,1,515,1,503,519,0,0
2.53,2,1,1,1,1,508,1,490,516,0,0
2.531,3,1,1,1,1,508,1,490,512,0,0
2.532,4,1,1,1,1,505,1,496,512,0,0
2.533,5,1,1,1,1,507,3,508,503,0,0
2.534,6,1,1,1,1,507,1,522,496,0,0
2.535,7,1,1,1,1,506,1,528,502,0,0
2.536,8,1,1,1,1,513,1,530,509,0,0
2.537,9,1,1,1,1,514,1,518,508,0,0
2.538,10,1,1,1,1,514,1,504,506,0,0
2.539,11,1,1,1,1,510,0,488,513,0,0
2.54,12,1,1,1,1,511,1,486,517,0,0
2.541,13,1,1,1,1,507,3,472,511,0,0
2.542,14,1,1,1,1,502,1,471,508,0,0
2.543,15,1,1,1,1,503,1,479,506,0,0
2.544,0,1,1,1,1,500,1,486,504,0,0
2.545,1,1,1,1,1,498,1,483,511,0,0
2.546,2,1,1,1,1,495,1,495,521,0,0
2.547,3,1,1,1,1,509,0,514,511,0,0
2.548,4,1,1,1,1,517,1,524,528,0,0
2.549,5,1,1,1,1,524,3,526,519,0,0
2.55,6,1,1,1,1,520,1,518,506,0,0
2.551,7,1,1,1,1,524,1,526,500,0,0
2.552,8,1,1,1,1,526,1,539,497,0,0
2.553,9,1,1,1,1,531,1,540,505,0,0
2.554,10,1,1,1,1,524,1,534,504,0,0
2.555,11,1,1,1,1,515,0,536,498,0,0
2.556,12,1,1,1,1,517,1,528,505,0,0
2.557,13,1,1,1,1,512,3,508,511,0,0
2.558,14,1,1,1,1,506,1,503,515,0,0
2.559,15,1,1,1,1,505,1,502,525,0,0
2.56,0,1,1,1,1,485,1,471,509,0,0
2.561,1,1,1,1,1,486,1,466,498,0,0
2.562,2,1,1,1,1,498,1,471,503,0,0
2.563,3,1,1,1,1,511,1,476,522,0,0
2.564,4,1,1,1,1,523,1,492,518,0,0
2.565,5,1,1,1,1,520,1,502,516,0,0
2.566,6,1,1,1,1,522,1,513,515,0,0
2.567,7,1,1,1,1,528,1,539,504,0,0
2.568,8,1,1,1,1,508,1,524,510,0,0
2.569,9,1,1,1,1,515,1,531,496,0,0
2.57,10,1,1,1,1,511,1,535,460,0,0
2.571,11,1,1,1,1,515,1,548,462,0,0
2.572,12,1,1,1,1,515,1,557,474,0,0
2.573,13,1,1,1,1,527,1,560,483,0,0
2.574,14,1,1,1,1,530,1,581,486,0,0
2.575,15,1,1,1,1,527,1,577,508,0,0
2.576,0,1,1,1,1,519,1,543,525,0,0
2.577,1,1,1,1,1,504,1,471,512,0,0
2.578,2,1,1,1,1,492,1,422,520,0,0
2.579,3,1,1,1,1,499,1,409,526,0,0
2.58,4,1,1,1,1,507,1,409,539,0,0
2.581,5,1,1,1,1,507,3,427,524,0,0
2.582,6,1,1,1,1,488,1,442,551,0,0
2.583,7,1,1,1,1,473,1,448,540,0,0
2.584,8,1,1,1,1,475,1,492,565,0,0
2.585,9,1,1,1,1,500,1,550,551,0,0
2.586,10,1,1,1,1,524,1,602,513,0,0
2.587,11,1,1,1,1,515,0,595,492,0,0
2.588,12,1,1,1,1,527,1,577,493,0,0
2.589,13,1,1,1,1,530,3,566,486,0,0
2.59,14,1,1,1,1,527,1,553,476,0,0
2.591,15,1,1,1,1,532,1,540,479,0,0
2.592,0,1,1,1,1,527,1,509,508,0,0
2.593,1,1,1,1,1,532,1,484,503,0,0
2.594,2,1,1,1,1,520,1,463,509,0,0
2.595,3,1,1,1,1,499,0,466,511,0,0
2.596,4,1,1,1,1,493,1,466,505,0,0
2.597,5,1,1,1,1,485,3,456,507,0,0
2.598,6,1,1,1,1,479,1,446,521,0,0
2.599,7,1,1,1,1,484,1,452,539,0,0
2.6,8,1,1,1,1,498,1,468,501,0,0
2.601,9,1,1,1,1,502,1,503,499,0,0
2.602,10,1,1,1,1,516,1,549,494,0,0
2.603,11,1,1,1,1,532,1,581,506,0,0
2.604,12,1,1,1,1,543,2,647,481,0,0
2.605,13,1,1,1,1,541,3,658,476,0,0
2.606,14,1,1,1,1,548,1,621,487,0,0
2.607,15,1,1,1,1,528,1,559,547,0,0
2.608,0,1,1,1,1,510,1,503,552,0,0
2.609,1,1,1,1,1,483,1,422,545,0,0
2.61,2,1,1,1,1,513,1,400,526,0,0
2.611,3,1,1,1,1,526,1,381,518,0,0
2.612,4,1,1,1,1,499,1,386,502,0,0
2.613,5,1,1,1,1,487,3,399,521,0,0
2.614,6,1,1,1,1,487,1,438,528,0,0
2.615,7,1,1,1,1,480,1,480,529,0,0
2.616,8,1,1,1,1,492,1,511,517,0,0
2.617,9,1,1,1,1,525,1,519,463,0,0
2.618,10,1,1,1,1,529,1,513,458,0,0
2.619,11,1,1,1,1,517,1,502,476,0,0
2.62,12,1,1,1,1,500,1,487,467,0,0
2.621,13,1,1,1,1,478,3,468,442,0,0
2.622,14,1,1,1,1,488,1,492,491,0,0
2.623,15,1,1,1,1,514,1,514,557,0,0
2.624,0,1,1,1,1,529,0,550,561,0,0
2.625,1,1,1,1,1,545,1,567,553,0,0
2.626,2,1,1,1,1,536,1,620,528,0,0
2.627,3,1,1,1,1,547,1,698,486,0,0
2.628,4,1,1,1,1,552,1,699,507,0,0
2.629,5,1,1,1,1,547,3,636,533,0,0
2.63,6,1,1,1,1,526,1,549,519,0,0
2.631,7,1,1,1,1,502,1,456,531,0,0
2.632,8,1,1,1,1,506,0,396,536,0,0
2.633,9,1,1,1,1,499,1,357,523,0,0
2.634,10,1,1,1,1,484,1,337,505,0,0
2.635,11,1,1,1,1,481,1,365,495,0,0
2.636,12,1,1,1,1,483,1,409,486,0,0
2.637,13,1,1,1,1,465,3,439,465,0,0
2.638,14,1,1,1,1,480,1,525,480,0,0
2.639,15,1,1,1,1,513,1,616,481,0,0
2.64,0,1,1,1,1,546,1,675,515,0,0
2.641,1,1,1,1,1,551,1,644,537,0,0
2.642,2,1,1,1,1,553,1,600,507,0,0
2.643,3,1,1,1,1,555,1,589,492,0,0
2.644,4,1,1,1,1,548,1,566,503,0,0
2.645,5,1,1,1,1,528,3,524,519,0,0
2.646,6,1,1,1,1,502,1,466,569,0,0
2.647,7,1,1,1,1,495,1,427,554,0,0
2.648,8,1,1,1,1,479,1,416,514,0,0
2.649,9,1,1,1,1,451,1,403,470,0,0
2.65,10,1,1,1,1,457,1,427,489,0,0
2.651,11,1,1,1,1,471,1,462,465,0,0
2.652,12,1,1,1,1,495,1,490,478,0,0
2.653,13,1,1,1,1,520,3,508,474,0,0
2.654,14,1,1,1,1,519,1,529,506,0,0
2.655,15,1,1,1,1,533,1,550,520,0,0
2.656,0,1,1,1,1,559,1,575,527,0,0
2.657,1,1,1,1,1,573,1,582,546,0,0
2.658,2,1,1,1,1,558,1,577,551,0,0
2.659,3,1,1,1,1,518,1,549,512,0,0
2.66,4,1,1,1,1,504,1,535,505,0,0
2.661,5,1,1,1,1,489,3,491,487,0,0
2.662,6,1,1,1,1,491,1,484,492,0,0
2.663,7,1,1,1,1,494,1,514,513,0,0
2.664,8,1,1,1,1,499,1,516,526,0,0
2.665,9,1,1,1,1,490,1,495,499,0,0
2.666,10,1,1,1,1,511,1,503,487,0,0
2.667,11,1,1,1,1,524,1,512,469,0,0
2.668,12,1,1,1,1,527,1,504,486,0,0
2.669,13,1,1,1,1,525,2,491,505,0,0
2.67,14,1,1,1,1,507,1,472,497,0,0
2.671,15,1,1,1,1,488,1,494,468,0,0
2.672,0,1,1,1,1,496,1,544,474,0,0
2.673,1,1,1,1,1,507,1,589,484,0,0
2.674,2,1,1,1,1,489,1,568,525,0,0
2.675,3,1,1,1,1,489,1,543,616,0,0
2.676,4,1,1,1,1,485,1,511,653,0,0
2.677,5,1,1,1,1,513,2,493,572,0,0
2.678,6,1,1,1,1,559,1,475,543,0,0
2.679,7,1,1,1,1,547,1,450,568,0,0
2.68,8,1,1,1,1,499,1,410,524,0,0
2.681,9,1,1,1,1,476,1,401,499,0,0
2.682,10,1,1,1,1,474,1,432,467,0,0
2.683,11,1,1,1,1,505,1,480,450,0,0
2.684,12,1,1,1,1,510,1,519,432,0,0
2.685,13,1,1,1,1,543,2,587,444,0,0
2.686,14,1,1,1,1,538,1,592,470,0,0
2.687,15,1,1,1,1,534,1,568,455,0,0
2.688,0,1,1,1,1,543,1,571,484,0,0
2.689,1,1,1,1,1,561,1,569,518,0,0
2.69,2,1,1,1,1,536,1,513,547,0,0
2.691,3,1,1,1,1,494,1,503,563,0,0
2.692,4,1,1,1,1,480,1,504,530,0,0
2.693,5,1,1,1,1,486,3,501,540,0,0
2.694,6,1,1,1,1,473,1,480,534,0,0
2.695,7,1,1,1,1,493,1,487,530,0,0
2.696,8,1,1,1,1,524,1,503,514,0,0
2.697,9,1,1,1,1,540,1,499,507,0,0
2.698,10,1,1,1,1,530,1,482,496,0,0
2.699,11,1,1,1,1,515,1,484,488,0,0
2.7,12,1,1,1,1,498,1,496,478,0,0
2.701,13,1,1,1,1,513,3,527,485,0,0
2.702,14,1,1,1,1,519,1,532,497,0,0
2.703,15,1,1,1,1,507,1,551,510,0,0
2.704,0,1,1,1,1,505,1,565,504,0,0
2.705,1,1,1,1,1,515,1,566,496,0,0
2.706,2,1,1,1,1,518,1,538,486,0,0
2.707,3,1,1,1,1,512,1,543,514,0,0
2.708,4,1,1,1,1,526,1,557,486,0,0
2.709,5,1,1,1,1,525,3,536,490,0,0
2.71,6,1,1,1,1,526,1,534,510,0,0
2.711,7,1,1,1,1,517,1,534,486,0,0
2.712,8,1,1,1,1,523,0,511,500,0,0
2.713,9,1,1,1,1,524,1,481,517,0,0
2.714,10,1,1,1,1,516,1,436,545,0,0
2.715,11,1,1,1,1,512,1,404,497,0,0
2.716,12,1,1,1,1,492,1,409,471,0,0
2.717,13,1,1,1,1,486,3,491,489,0,0
2.718,14,1,1,1,1,481,1,503,547,0,0
2.719,15,1,1,1,1,470,1,485,540,0,0
2.72,0,1,1,1,1,499,0,497,532,0,0
2.721,1,1,1,1,1,488,1,497,536,0,0
2.722,2,1,1,1,1,493,1,473,492,0,0
2.723,3,1,1,1,1,501,1,464,498,0,0
2.724,4,1,1,1,1,509,1,477,490,0,0
2.725,5,1,1,1,1,511,3,463,521,0,0
2.726,6,1,1,1,1,502,1,462,537,0,0
2.727,7,1,1,1,1,509,1,497,505,0,0
2.728,8,1,1,1,1,522,0,531,474,0,0
2.729,9,1,1,1,1,517,1,559,587,0,0
2.73,10,1,1,1,1,536,1,615,529,0,0
2.731,11,1,1,1,1,550,1,667,506,0,0
2.732,12,1,1,1,1,558,2,687,507,0,0
2.733,13,1,1,1,1,547,3,638,517,0,0
2.734,14,1,1,1,1,543,1,639,503,0,0
2.735,15,1,1,1,1,565,2,579,516,0,0
2.736,0,1,1,1,1,552,1,494,481,0,0
2.737,1,1,1,1,1,517,1,397,508,0,0
2.738,2,1,1,1,1,448,1,286,508,0,0
2.739,3,1,1,1,1,413,1,267,537,0,0
2.74,4,1,1,1,1,435,1,304,545,0,0
2.741,5,1,1,1,1,442,3,371,537,0,0
2.742,6,1,1,1,1,476,1,473,517,0,0
2.743,7,1,1,1,1,520,1,569,473,0,0
2.744,8,1,1,1,1,557,1,641,463,0,0
2.745,9,1,1,1,1,590,1,675,464,0,0
2.746,10,1,1,1,1,598,2,721,465,0,0
2.747,11,1,1,1,1,583,2,694,455,0,0
2.748,12,1,1,1,1,559,2,608,464,0,0
2.749,13,1,1,1,1,520,3,527,523,0,0
2.75,14,1,1,1,1,504,1,446,552,0,0
2.751,15,1,1,1,1,487,1,391,551,0,0
2.752,0,1,1,1,1,432,1,311,543,0,0
2.753,1,1,1,1,1,389,0,274,516,0,0
2.754,2,1,1,1,1,405,0,326,498,0,0
2.755,3,1,1,1,1,431,0,423,551,0,0
2.756,4,1,1,1,1,481,1,526,551,0,0
2.757,5,1,1,1,1,527,3,569,508,0,0
2.758,6,1,1,1,1,570,2,620,514,0,0
2.759,7,1,1,1,1,575,2,674,495,0,0
2.76,8,1,1,1,1,588,2,703,464,0,0
2.761,9,1,1,1,1,587,2,735,453,0,0
2.762,10,1,1,1,1,579,1,668,488,0,0
2.763,11,1,1,1,1,531,1,543,516,0,0
2.764,12,1,1,1,1,508,1,440,577,0,0
2.765,13,1,1,1,1,502,3,385,591,0,0
2.766,14,1,1,1,1,473,1,339,548,0,0
2.767,15,1,1,1,1,437,1,316,478,0,0
2.768,0,1,1,1,1,457,1,370,484,0,0
2.769,1,1,1,1,1,461,1,416,492,0,0
2.77,2,1,1,1,1,498,1,501,468,0,0
2.771,3,1,1,1,1,544,1,548,458,0,0
2.772,4,1,1,1,1,523,1,536,471,0,0
2.773,5,1,1,1,1,518,3,539,472,0,0
2.774,6,1,1,1,1,541,1,559,471,0,0
2.775,7,1,1,1,1,542,1,583,475,0,0
2.776,8,1,1,1,1,531,1,573,483,0,0
2.777,9,1,1,1,1,504,1,551,474,0,0
2.778,10,1,1,1,1,503,1,538,504,0,0
2.779,11,1,1,1,1,512,1,545,534,0,0
2.78,12,1,1,1,1,502,1,529,576,0,0
2.781,13,1,1,1,1,509,1,532,685,0,0
2.782,14,1,1,1,1,522,1,553,627,0,0
2.783,15,1,1,1,1,523,1,555,522,0,0
2.784,0,1,1,1,1,529,1,567,492,0,0
2.785,1,1,1,1,1,534,1,558,478,0,0
2.786,2,1,1,1,1,530,1,572,477,0,0
2.787,3,1,1,1,1,540,1,591,472,0,0
2.788,4,1,1,1,1,537,1,564,507,0,0
2.789,5,1,1,1,1,507,1,487,505,0,0
2.79,6,1,1,1,1,508,1,480,470,0,0
2.791,7,1,1,1,1,528,1,482,457,0,0
2.792,8,1,1,1,1,525,1,467,484,0,0
2.793,9,1,1,1,1,501,1,427,490,0,0
2.794,10,1,1,1,1,459,1,380,489,0,0
2.795,11,1,1,1,1,452,1,400,567,0,0
2.796,12,1,1,1,1,469,1,438,527,0,0
2.797,13,1,1,1,1,498,1,475,507,0,0
2.798,14,1,1,1,1,480,1,477,528,0,0
2.799,15,1,1,1,1,503,1,500,500,0,0
2.8,0,1,1,1,1,526,1,530,512,0,0
2.801,1,1,1,1,1,518,1,540,544,0,0
2.802,2,1,1,1,1,499,1,521,571,0,0
2.803,3,1,1,1,1,477,0,488,515,0,0
2.804,4,1,1,1,1,518,1,520,492,0,0
2.805,5,1,1,1,1,536,3,544,477,0,0
2.806,6,1,1,1,1,544,1,559,501,0,0
2.807,7,1,1,1,1,530,1,559,482,0,0
2.808,8,1,1,1,1,531,1,597,480,0,0
2.809,9,1,1,1,1,543,1,604,560,0,0
2.81,10,1,1,1,1,544,1,567,553,0,0
2.811,11,1,1,1,1,515,0,520,496,0,0
2.812,12,1,1,1,1,507,1,508,490,0,0
2.813,13,1,1,1,1,494,3,477,481,0,0
2.814,14,1,1,1,1,489,1,448,485,0,0
2.815,15,1,1,1,1,492,1,445,483,0,0
2.816,0,1,1,1,1,496,1,439,448,0,0
2.817,1,1,1,1,1,509,1,506,456,0,0
2.818,2,1,1,1,1,517,1,529,456,0,0
2.819,3,1,1,1,1,517,1,518,473,0,0
2.82,4,1,1,1,1,529,1,555,496,0,0
2.821,5,1,1,1,1,536,3,559,468,0,0
2.822,6,1,1,1,1,541,1,540,541,0,0
2.823,7,1,1,1,1,498,1,511,592,0,0
2.824,8,1,1,1,1,491,1,498,554,0,0
2.825,9,1,1,1,1,475,1,456,604,0,0
2.826,10,1,1,1,1,471,1,460,612,0,0
2.827,11,1,1,1,1,487,1,462,551,0,0
2.828,12,1,1,1,1,511,1,483,475,0,0
2.829,13,1,1,1,1,517,3,543,515,0,0
2.83,14,1,1,1,1,531,1,565,496,0,0
2.831,15,1,1,1,1,531,1,547,480,0,0
2.832,0,1,1,1,1,543,1,598,494,0,0
2.833,1,1,1,1,1,556,1,647,522,0,0
2.834,2,1,1,1,1,555,1,632,486,0,0
2.835,3,1,1,1,1,534,1,564,489,0,0
2.836,4,1,1,1,1,506,1,473,487,0,0
2.837,5,1,1,1,1,483,3,405,495,0,0
2.838,6,1,1,1,1,489,1,365,528,0,0
2.839,7,1,1,1,1,487,1,342,515,0,0
2.84,8,1,1,1,1,439,1,331,533,0,0
2.841,9,1,1,1,1,442,0,393,450,0,0
2.842,10,1,1,1,1,484,1,492,468,0,0
2.843,11,1,1,1,1,510,1,569,473,0,0
2.844,12,1,1,1,1,527,1,614,451,0,0
2.845,13,1,1,1,1,544,3,618,460,0,0
2.846,14,1,1,1,1,548,1,621,579,0,0
2.847,15,1,1,1,1,564,1,626,585,0,0
2.848,0,1,1,1,1,555,1,613,547,0,0
2.849,1,1,1,1,1,548,1,582,548,0,0
2.85,2,1,1,1,1,551,1,562,536,0,0
2.851,3,1,1,1,1,533,1,536,539,0,0
2.852,4,1,1,1,1,519,1,494,523,0,0
2.853,5,1,1,1,1,488,3,438,513,0,0
2.854,6,1,1,1,1,467,1,394,505,0,0
2.855,7,1,1,1,1,461,1,399,493,0,0
2.856,8,1,1,1,1,469,0,435,484,0,0
2.857,9,1,1,1,1,463,1,442,525,0,0
2.858,10,1,1,1,1,463,1,467,518,0,0
2.859,11,1,1,1,1,498,1,503,500,0,0
2.86,12,1,1,1,1,525,1,512,513,0,0
2.861,13,1,1,1,1,530,3,537,505,0,0
2.862,14,1,1,1,1,511,1,537,516,0,0
2.863,15,1,1,1,1,516,1,550,467,0,0
2.864,0,1,1,1,1,538,1,555,449,0,0
2.865,1,1,1,1,1,543,1,574,448,0,0
2.866,2,1,1,1,1,560,1,590,454,0,0
2.867,3,1,1,1,1,559,1,588,461,0,0
2.868,4,1,1,1,1,537,1,562,536,0,0
2.869,5,1,1,1,1,500,3,499,635,0,0
2.87,6,1,1,1,1,490,1,451,585,0,0
2.871,7,1,1,1,1,503,1,460,537,0,0
2.872,8,1,1,1,1,508,1,466,522,0,0
2.873,9,1,1,1,1,497,1,455,486,0,0
2.874,10,1,1,1,1,489,1,510,505,0,0
2.875,11,1,1,1,1,487,1,577,486,0,0
2.876,12,1,1,1,1,516,1,601,446,0,0
2.877,13,1,1,1,1,539,3,595,466,0,0
2.878,14,1,1,1,1,539,1,516,460,0,0
2.879,15,1,1,1,1,503,1,424,539,0,0
2.88,0,1,1,1,1,482,1,391,598,0,0
2.881,1,1,1,1,1,480,1,370,558,0,0
2.882,2,1,1,1,1,476,1,367,521,0,0
2.883,3,1,1,1,1,454,1,416,486,0,0
2.884,4,1,1,1,1,497,1,501,449,0,0
2.885,5,1,1,1,1,518,2,558,484,0,0
2.886,6,1,1,1,1,546,1,584,489,0,0
2.887,7,1,1,1,1,548,1,578,487,0,0
2.888,8,1,1,1,1,553,1,574,488,0,0
2.889,9,1,1,1,1,540,1,607,462,0,0
2.89,10,1,1,1,1,544,1,640,468,0,0
2.891,11,1,1,1,1,536,1,593,477,0,0
2.892,12,1,1,1,1,507,1,527,512,0,0
2.893,13,1,1,1,1,505,2,494,568,0,0
2.894,14,1,1,1,1,506,1,452,603,0,0
2.895,15,1,1,1,1,486,1,414,574,0,0
2.896,0,1,1,1,1,464,1,416,545,0,0
2.897,1,1,1,1,1,483,1,455,511,0,0
2.898,2,1,1,1,1,510,1,531,475,0,0
2.899,3,1,1,1,1,524,1,551,489,0,0
2.9,4,1,1,1,1,527,1,545,505,0,0
2.901,5,1,1,1,1,530,2,540,508,0,0
2.902,6,1,1,1,1,524,1,527,513,0,0
2.903,7,1,1,1,1,506,1,493,466,0,0
2.904,8,1,1,1,1,522,1,487,473,0,0
2.905,9,1,1,1,1,505,1,463,504,0,0
2.906,10,1,1,1,1,502,1,467,523,0,0
2.907,11,1,1,1,1,480,1,454,543,0,0
2.908,12,1,1,1,1,477,1,476,584,0,0
2.909,13,1,1,1,1,489,3,504,520,0,0
2.91,14,1,1,1,1,510,1,539,505,0,0
2.911,15,1,1,1,1,513,1,546,487,0,0
2.912,0,1,1,1,1,516,1,546,501,0,0
2.913,1,1,1,1,1,527,1,558,513,0,0
2.914,2,1,1,1,1,558,1,571,504,0,0
2.915,3,1,1,1,1,558,1,568,490,0,0
2.916,4,1,1,1,1,546,2,550,493,0,0
2.917,5,1,1,1,1,503,3,518,493,0,0
2.918,6,1,1,1,1,512,1,504,514,0,0
2.919,7,1,1,1,1,532,1,495,518,0,0
2.92,8,1,1,1,1,508,1,485,539,0,0
2.921,9,1,1,1,1,503,1,490,524,0,0
2.922,10,1,1,1,1,515,1,488,465,0,0
2.923,11,1,1,1,1,517,1,496,467,0,0
2.924,12,1,1,1,1,506,1,503,468,0,0
2.925,13,1,1,1,1,520,3,518,485,0,0
2.926,14,1,1,1,1,528,1,549,493,0,0
2.927,15,1,1,1,1,519,1,552,503,0,0
2.928,0,1,1,1,1,489,1,534,548,0,0
2.929,1,1,1,1,1,491,1,551,551,0,0
2.93,2,1,1,1,1,496,1,568,568,0,0
2.931,3,1,1,1,1,532,1,568,568,0,0
2.932,4,1,1,1,1,522,1,488,502,0,0
2.933,5,1,1,1,1,508,3,407,474,0,0
2.934,6,1,1,1,1,483,1,345,514,0,0
2.935,7,1,1,1,1,460,1,336,460,0,0
2.936,8,1,1,1,1,478,0,336,398,0,0
2.937,9,1,1,1,1,465,1,389,386,0,0
2.938,10,1,1,1,1,454,1,443,478,0,0
2.939,11,1,1,1,1,486,1,516,518,0,0
2.94,12,1,1,1,1,496,1,583,618,0,0
2.941,13,1,1,1,1,515,3,612,646,0,0
2.942,14,1,1,1,1,550,1,639,631,0,0
2.943,15,1,1,1,1,550,1,605,560,0,0
2.944,0,1,1,1,1,536,0,560,525,0,0
2.945,1,1,1,1,1,527,1,537,528,0,0
2.946,2,1,1,1,1,531,1,529,510,0,0
2.947,3,1,1,1,1,528,1,523,504,0,0
2.948,4,1,1,1,1,536,1,552,493,0,0
2.949,5,1,1,1,1,531,3,564,422,0,0
2.95,6,1,1,1,1,516,1,532,451,0,0
2.951,7,1,1,1,1,496,1,489,471,0,0
2.952,8,1,1,1,1,512,1,512,469,0,0
2.953,9,1,1,1,1,519,1,544,486,0,0
2.954,10,1,1,1,1,521,1,557,462,0,0
2.955,11,1,1,1,1,525,1,552,475,0,0
2.956,12,1,1,1,1,534,1,575,476,0,0
2.957,13,1,1,1,1,546,3,564,492,0,0
2.958,14,1,1,1,1,520,1,502,476,0,0
2.959,15,1,1,1,1,502,1,440,558,0,0
2.96,0,1,1,1,1,471,1,391,556,0,0
2.961,1,1,1,1,1,481,1,395,512,0,0
2.962,2,1,1,1,1,472,1,405,595,0,0
2.963,3,1,1,1,1,499,1,445,596,0,0
2.964,4,1,1,1,1,493,1,492,550,0,0
2.965,5,1,1,1,1,541,3,608,522,0,0
2.966,6,1,1,1,1,548,1,639,493,0,0
2.967,7,1,1,1,1,542,1,603,488,0,0
2.968,8,1,1,1,1,538,1,554,488,0,0
2.969,9,1,1,1,1,532,1,491,512,0,0
2.97,10,1,1,1,1,526,1,455,536,0,0
2.971,11,1,1,1,1,489,1,417,576,0,0
2.972,12,1,1,1,1,439,1,383,546,0,0
2.973,13,1,1,1,1,454,3,427,481,0,0
2.974,14,1,1,1,1,494,1,490,418,0,0
2.975,15,1,1,1,1,524,1,564,451,0,0
2.976,0,1,1,1,1,524,1,569,434,0,0
2.977,1,1,1,1,1,527,1,537,436,0,0
2.978,2,1,1,1,1,496,1,508,443,0,0
2.979,3,1,1,1,1,471,0,482,580,0,0
2.98,4,1,1,1,1,485,1,487,616,0,0
2.981,5,1,1,1,1,475,3,452,549,0,0
2.982,6,1,1,1,1,516,1,497,510,0,0
2.983,7,1,1,1,1,537,1,558,510,0,0
2.984,8,1,1,1,1,548,1,581,487,0,0
2.985,9,1,1,1,1,549,1,563,486,0,0
2.986,10,1,1,1,1,543,1,543,505,0,0
2.987,11,1,1,1,1,524,1,518,534,0,0
2.988,12,1,1,1,1,512,1,482,521,0,0
2.989,13,1,1,1,1,500,3,465,514,0,0
2.99,14,1,1,1,1,485,1,459,493,0,0
2.991,15,1,1,1,1,490,1,476,490,0,0
2.992,0,1,1,1,1,513,1,519,514,0,0
2.993,1,1,1,1,1,538,1,554,519,0,0
2.994,2,1,1,1,1,526,1,551,511,0,0
2.995,3,1,1,1,1,517,1,542,502,0,0
2.996,4,1,1,1,1,526,1,547,495,0,0
2.997,5,1,1,1,1,521,1,546,515,0,0
2.998,6,1,1,1,1,505,1,507,518,0,0
2.999,7,1,1,1,1,494,1,476,504,0,0
3.0,8,1,1,1,1,499,1,470,510,0,0
3.001,9,1,1,1,1,499,1,483,516,0,0
3.002,10,1,1,1,1,511,1,506,524,0,0
3.003,11,1,1,1,1,523,1,510,477,0,0
3.004,12,1,1,1,1,542,1,544,474,0,0
3.005,13,1,1,1,1,531,1,571,463,0,0
3.006,14,1,1,1,1,533,1,580,487,0,0
3.007,15,1,1,1,1,546,1,600,488,0,0
3.008,0,1,1,1,1,542,1,572,463,0,0
3.009,1,1,1,1,1,543,1,542,496,0,0
3.01,2,1,1,1,1,497,1,454,555,0,0
3.011,3,1,1,1,1,461,1,401,535,0,0
3.012,4,1,1,1,1,460,1,393,496,0,0
3.013,5,1,1,1,1,449,1,436,564,0,0
3.014,6,1,1,1,1,468,1,489,554,0,0
3.015,7,1,1,1,1,507,1,512,535,0,0
3.016,8,1,1,1,1,524,1,535,522,0,0
3.017,9,1,1,1,1,522,1,509,521,0,0
3.018,10,1,1,1,1,520,1,514,525,0,0
3.019,11,1,1,1,1,521,1,514,490,0,0
3.02,12,1,1,1,1,505,1,504,488,0,0
3.021,13,1,1,1,1,530,3,576,526,0,0
3.022,14,1,1,1,1,546,1,596,520,0,0
3.023,15,1,1,1,1,537,1,596,507,0,0
3.024,0,1,1,1,1,516,1,537,538,0,0
3.025,1,1,1,1,1,517,1,479,568,0,0
3.026,2,1,1,1,1,489,1,404,551,0,0
3.027,3,1,1,1,1,473,0,391,444,0,0
3.028,4,1,1,1,1,455,1,374,483,0,0
3.029,5,1,1,1,1,457,3,395,465,0,0
3.03,6,1,1,1,1,482,1,449,468,0,0
3.031,7,1,1,1,1,512,1,504,473,0,0
3.032,8,1,1,1,1,517,1,538,496,0,0
3.033,9,1,1,1,1,519,1,548,505,0,0
3.034,10,1,1,1,1,535,1,551,529,0,0
3.035,11,1,1,1,1,539,1,559,518,0,0
3.036,12,1,1,1,1,532,1,571,502,0,0
3.037,13,1,1,1,1,545,3,583,468,0,0
3.038,14,1,1,1,1,560,2,612,460,0,0
3.039,15,1,1,1,1,556,1,631,470,0,0
3.04,0,1,1,1,1,536,1,628,511,0,0
3.041,1,1,1,1,1,522,1,585,542,0,0
3.042,2,1,1,1,1,519,1,523,578,0,0
3.043,3,1,1,1,1,504,1,459,572,0,0
3.044,4,1,1,1,1,482,1,417,546,0,0
3.045,5,1,1,1,1,476,3,413,544,0,0
3.046,6,1,1,1,1,482,1,413,494,0,0
3.047,7,1,1,1,1,501,1,487,472,0,0
3.048,8,1,1,1,1,515,1,500,486,0,0
3.049,9,1,1,1,1,524,1,504,537,0,0
3.05,10,1,1,1,1,507,1,498,542,0,0
3.051,11,1,1,1,1,505,1,498,509,0,0
3.052,12,1,1,1,1,508,1,494,495,0,0
3.053,13,1,1,1,1,516,3,503,468,0,0
3.054,14,1,1,1,1,512,1,499,468,0,0
3.055,15,1,1,1,1,503,1,493,432,0,0
3.056,0,1,1,1,1,506,1,493,457,0,0
3.057,1,1,1,1,1,493,1,488,546,0,0
3.058,2,1,1,1,1,496,1,497,539,0,0
3.059,3,1,1,1,1,495,1,496,555,0,0
3.06,4,1,1,1,1,491,1,524,539,0,0
3.061,5,1,1,1,1,515,3,564,559,0,0
3.062,6,1,1,1,1,512,1,559,539,0,0
3.063,7,1,1,1,1,520,1,545,510,0,0
3.064,8,1,1,1,1,535,0,536,491,0,0
3.065,9,1,1,1,1,524,1,525,514,0,0
3.066,10,1,1,1,1,527,1,521,509,0,0
3.067,11,1,1,1,1,514,1,512,494,0,0
3.068,12,1,1,1,1,530,1,513,489,0,0
3.069,13,1,1,1,1,530,3,496,490,0,0
3.07,14,1,1,1,1,503,1,479,490,0,0
3.071,15,1,1,1,1,488,1,475,462,0,0
3.072,0,1,1,1,1,491,0,492,460,0,0
3.073,1,1,1,1,1,516,1,524,476,0,0
3.074,2,1,1,1,1,524,1,528,510,0,0
3.075,3,1,1,1,1,519,1,529,533,0,0
3.076,4,1,1,1,1,530,1,526,536,0,0
3.077,5,1,1,1,1,535,3,508,543,0,0
3.078,6,1,1,1,1,523,1,502,541,0,0
3.079,7,1,1,1,1,501,1,477,557,0,0
3.08,8,1,1,1,1,487,0,508,505,0,0
3.081,9,1,1,1,1,507,1,595,480,0,0
3.082,10,1,1,1,1,555,1,668,492,0,0
3.083,11,1,1,1,1,561,1,618,499,0,0
3.084,12,1,1,1,1,536,1,562,508,0,0
3.085,13,1,1,1,1,496,3,479,509,0,0
3.086,14,1,1,1,1,465,1,401,524,0,0
3.087,15,1,1,1,1,468,1,355,547,0,0
3.088,0,1,1,1,1,451,1,332,495,0,0
3.089,1,1,1,1,1,470,1,401,493,0,0
3.09,2,1,1,1,1,518,1,519,516,0,0
3.091,3,1,1,1,1,541,1,600,510,0,0
3.092,4,1,1,1,1,543,1,580,482,0,0
3.093,5,1,1,1,1,544,3,552,534,0,0
3.094,6,1,1,1,1,518,1,489,564,0,0
3.095,7,1,1,1,1,487,1,444,506,0,0
3.096,8,1,1,1,1,492,1,434,460,0,0
3.097,9,1,1,1,1,453,1,420,449,0,0
3.098,10,1,1,1,1,470,1,466,460,0,0
3.099,11,1,1,1,1,498,1,552,483,0,0
3.1,12,1,1,1,1,542,1,592,524,0,0
3.101,13,1,1,1,1,540,3,582,549,0,0
3.102,14,1,1,1,1,537,1,564,549,0,0
3.103,15,1,1,1,1,545,1,542,545,0,0
3.104,0,1,1,1,1,540,1,530,518,0,0
3.105,1,1,1,1,1,513,1,528,505,0,0
3.106,2,1,1,1,1,518,1,551,534,0,0
3.107,3,1,1,1,1,500,1,543,514,0,0
3.108,4,1,1,1,1,505,1,513,497,0,0
3.109,5,1,1,1,1,517,2,500,484,0,0
3.11,6,1,1,1,1,521,1,478,513,0,0
3.111,7,1,1,1,1,517,1,473,529,0,0
3.112,8,1,1,1,1,505,1,472,534,0,0
3.113,9,1,1,1,1,486,1,498,501,0,0
3.114,10,1,1,1,1,502,1,526,475,0,0
3.115,11,1,1,1,1,527,1,544,507,0,0
3.116,12,1,1,1,1,536,1,525,495,0,0
3.117,13,1,1,1,1,519,2,487,467,0,0
3.118,14,1,1,1,1,486,1,441,516,0,0
3.119,15,1,1,1,1,481,1,468,509,0,0
3.12,0,1,1,1,1,487,1,523,475,0,0
3.121,1,1,1,1,1,505,1,541,461,0,0
3.122,2,1,1,1,1,525,1,558,521,0,0
3.123,3,1,1,1,1,533,1,537,585,0,0
3.124,4,1,1,1,1,532,1,507,588,0,0
3.125,5,1,1,1,1,526,2,496,540,0,0
3.126,6,1,1,1,1,484,1,447,499,0,0
3.127,7,1,1,1,1,473,1,467,510,0,0
3.128,8,1,1,1,1,490,1,510,467,0,0
3.129,9,1,1,1,1,505,1,517,465,0,0
3.13,10,1,1,1,1,529,1,520,496,0,0
3.131,11,1,1,1,1,522,1,518,500,0,0
3.132,12,1,1,1,1,514,1,521,501,0,0
3.133,13,1,1,1,1,514,3,507,550,0,0
3.134,14,1,1,1,1,509,1,503,494,0,0
3.135,15,1,1,1,1,507,1,509,496,0,0
3.136,0,1,1,1,1,515,1,524,507,0,0
3.137,1,1,1,1,1,515,1,533,502,0,0
3.138,2,1,1,1,1,508,1,538,495,0,0
3.139,3,1,1,1,1,527,1,578,498,0,0
3.14,4,1,1,1,1,552,2,591,502,0,0
3.141,5,1,1,1,1,556,3,600,510,0,0
3.142,6,1,1,1,1,556,1,622,499,0,0
3.143,7,1,1,1,1,538,1,574,496,0,0
3.144,8,1,1,1,1,513,1,486,522,0,0
3.145,9,1,1,1,1,495,1,422,514,0,0
3.146,10,1,1,1,1,481,1,388,519,0,0
3.147,11,1,1,1,1,468,1,360,526,0,0
3.148,12,1,1,1,1,448,1,350,534,0,0
3.149,13,1,1,1,1,439,3,378,528,0,0
3.15,14,1,1,1,1,458,1,433,535,0,0
3.151,15,1,1,1,1,493,1,514,542,0,0
3.152,0,1,1,1,1,544,1,564,508,0,0
3.153,1,1,1,1,1,572,2,592,482,0,0
3.154,2,1,1,1,1,559,1,596,481,0,0
3.155,3,1,1,1,1,536,1,575,455,0,0
3.156,4,1,1,1,1,540,1,594,483,0,0
3.157,5,1,1,1,1,553,3,651,476,0,0
3.158,6,1,1,1,1,547,1,630,493,0,0
3.159,7,1,1,1,1,530,1,570,533,0,0
3.16,8,1,1,1,1,509,0,530,544,0,0
3.161,9,1,1,1,1,478,1,464,526,0,0
3.162,10,1,1,1,1,459,1,384,555,0,0
3.163,11,1,1,1,1,478,1,377,542,0,0
3.164,12,1,1,1,1,477,1,393,516,0,0
3.165,13,1,1,1,1,486,3,399,512,0,0
3.166,14,1,1,1,1,494,1,437,493,0,0
3.167,15,1,1,1,1,499,1,470,527,0,0
3.168,0,1,1,1,1,496,0,476,508,0,0
3.169,1,1,1,1,1,519,1,515,508,0,0
3.17,2,1,1,1,1,533,1,544,498,0,0
3.171,3,1,1,1,1,508,1,520,512,0,0
3.172,4,1,1,1,1,486,1,517,496,0,0
3.173,5,1,1,1,1,521,3,561,481,0,0
3.174,6,1,1,1,1,537,1,573,510,0,0
3.175,7,1,1,1,1,530,1,566,497,0,0
3.176,8,1,1,1,1,531,1,565,494,0,0
3.177,9,1,1,1,1,523,1,557,494,0,0
3.178,10,1,1,1,1,527,1,552,501,0,0
3.179,11,1,1,1,1,523,1,554,468,0,0
3.18,12,1,1,1,1,527,1,543,503,0,0
3.181,13,1,1,1,1,522,3,528,513,0,0
3.182,14,1,1,1,1,505,1,509,516,0,0
3.183,15,1,1,1,1,487,1,473,555,0,0
3.184,0,1,1,1,1,514,1,477,536,0,0
3.185,1,1,1,1,1,523,1,500,495,0,0
3.186,2,1,1,1,1,520,1,536,483,0,0
3.187,3,1,1,1,1,520,1,551,498,0,0
3.188,4,1,1,1,1,535,1,551,511,0,0
3.189,5,1,1,1,1,529,3,519,525,0,0
3.19,6,1,1,1,1,524,1,489,503,0,0
3.191,7,1,1,1,1,502,1,452,537,0,0
3.192,8,1,1,1,1,455,1,407,546,0,0
3.193,9,1,1,1,1,454,1,401,490,0,0
3.194,10,1,1,1,1,471,1,453,453,0,0
3.195,11,1,1,1,1,497,0,503,481,0,0
3.196,12,1,1,1,1,515,1,526,499,0,0
3.197,13,1,1,1,1,521,3,547,531,0,0
3.198,14,1,1,1,1,526,1,574,513,0,0
3.199,15,1,1,1,1,525,1,579,503,0,0
3.2,0,1,1,1,1,533,1,556,508,0,0
3.201,1,1,1,1,1,529,1,536,522,0,0
3.202,2,1,1,1,1,531,1,529,515,0,0
3.203,3,1,1,1,1,518,1,500,519,0,0
3.204,4,1,1,1,1,502,1,467,526,0,0
3.205,5,1,1,1,1,508,3,453,523,0,0
3.206,6,1,1,1,1,496,1,444,507,0,0
3.207,7,1,1,1,1,489,1,466,515,0,0
3.208,8,1,1,1,1,507,1,508,500,0,0
3.209,9,1,1,1,1,510,1,511,475,0,0
3.21,10,1,1,1,1,512,1,525,454,0,0
3.211,11,1,1,1,1,511,0,527,570,0,0
3.212,12,1,1,1,1,500,1,526,534,0,0
3.213,13,1,1,1,1,515,1,522,516,0,0
3.214,14,1,1,1,1,526,1,530,504,0,0
3.215,15,1,1,1,1,517,1,544,506,0,0
3.216,0,1,1,1,1,534,1,574,491,0,0
3.217,1,1,1,1,1,549,1,587,510,0,0
3.218,2,1,1,1,1,539,1,563,517,0,0
3.219,3,1,1,1,1,510,1,504,516,0,0
3.22,4,1,1,1,1,507,1,487,521,0,0
3.221,5,1,1,1,1,486,1,472,514,0,0
3.222,6,1,1,1,1,476,1,460,496,0,0
3.223,7,1,1,1,1,506,1,487,492,0,0
3.224,8,1,1,1,1,499,1,479,471,0,0
3.225,9,1,1,1,1,505,1,512,476,0,0
3.226,10,1,1,1,1,531,1,527,502,0,0
3.227,11,1,1,1,1,531,1,538,505,0,0
3.228,12,1,1,1,1,515,1,527,496,0,0
3.229,13,1,1,1,1,506,1,507,490,0,0
3.23,14,1,1,1,1,497,1,477,588,0,0
3.231,15,1,1,1,1,485,1,470,571,0,0
3.232,0,1,1,1,1,505,1,464,558,0,0
3.233,1,1,1,1,1,489,1,453,520,0,0
3.234,2,1,1,1,1,492,1,474,506,0,0
3.235,3,1,1,1,1,489,0,490,485,0,0
3.236,4,1,1,1,1,505,1,516,466,0,0
3.237,5,1,1,1,1,531,3,539,488,0,0
3.238,6,1,1,1,1,529,1,539,515,0,0
3.239,7,1,1,1,1,528,1,555,508,0,0
3.24,8,1,1,1,1,530,1,564,508,0,0
3.241,9,1,1,1,1,531,1,553,499,0,0
3.242,10,1,1,1,1,537,1,537,494,0,0
3.243,11,1,1,1,1,519,1,524,505,0,0
3.244,12,1,1,1,1,513,1,504,508,0,0
3.245,13,1,1,1,1,508,3,484,490,0,0
3.246,14,1,1,1,1,501,1,482,498,0,0
3.247,15,1,1,1,1,502,1,501,513,0,0
3.248,0,1,1,1,1,514,1,532,526,0,0
3.249,1,1,1,1,1,531,1,561,536,0,0
3.25,2,1,1,1,1,528,1,550,510,0,0
3.251,3,1,1,1,1,527,1,536,513,0,0
3.252,4,1,1,1,1,527,1,521,496,0,0
3.253,5,1,1,1,1,499,3,478,501,0,0
3.254,6,1,1,1,1,484,1,454,503,0,0
3.255,7,1,1,1,1,509,1,497,534,0,0
3.256,8,1,1,1,1,510,1,516,503,0,0
3.257,9,1,1,1,1,497,1,530,479,0,0
3.258,10,1,1,1,1,510,1,548,482,0,0
3.259,11,1,1,1,1,521,1,520,506,0,0
3.26,12,1,1,1,1,508,1,518,504,0,0
3.261,13,1,1,1,1,521,3,565,492,0,0
3.262,14,1,1,1,1,523,1,571,509,0,0
3.263,15,1,1,1,1,514,1,537,524,0,0
3.264,0,1,1,1,1,514,1,496,534,0,0
3.265,1,1,1,1,1,502,1,440,533,0,0
3.266,2,1,1,1,1,501,1,393,527,0,0
3.267,3,1,1,1,1,484,1,373,525,0,0
3.268,4,1,1,1,1,476,1,388,503,0,0
3.269,5,1,1,1,1,485,3,439,496,0,0
3.27,6,1,1,1,1,485,1,470,496,0,0
3.271,7,1,1,1,1,509,1,509,494,0,0
3.272,8,1,1,1,1,519,1,518,475,0,0
3.273,9,1,1,1,1,517,1,533,515,0,0
3.274,10,1,1,1,1,504,1,543,526,0,0
3.275,11,1,1,1,1,510,1,541,492,0,0
3.276,12,1,1,1,1,513,1,544,487,0,0
3.277,13,1,1,1,1,522,3,554,543,0,0
3.278,14,1,1,1,1,525,1,556,560,0,0
3.279,15,1,1,1,1,540,1,563,502,0,0
3.28,0,1,1,1,1,539,0,556,465,0,0
3.281,1,1,1,1,1,531,1,535,459,0,0
3.282,2,1,1,1,1,537,1,530,502,0,0
3.283,3,1,1,1,1,534,1,520,551,0,0
3.284,4,1,1,1,1,516,1,511,582,0,0
3.285,5,1,1,1,1,516,3,511,519,0,0
3.286,6,1,1,1,1,487,1,485,517,0,0
3.287,7,1,1,1,1,474,1,491,524,0,0
3.288,8,1,1,1,1,472,0,487,505,0,0
3.289,9,1,1,1,1,479,1,472,498,0,0
3.29,10,1,1,1,1,511,1,476,517,0,0
3.291,11,1,1,1,1,521,1,509,526,0,0
3.292,12,1,1,1,1,518,1,524,483,0,0
3.293,13,1,1,1,1,520,3,528,475,0,0
3.294,14,1,1,1,1,525,1,535,487,0,0
3.295,15,1,1,1,1,527,1,544,496,0,0
3.296,0,1,1,1,1,526,0,564,512,0,0
3.297,1,1,1,1,1,530,1,547,507,0,0
3.298,2,1,1,1,1,512,1,512,515,0,0
3.299,3,1,1,1,1,500,1,495,500,0,0
3.3,4,1,1,1,1,515,1,495,497,0,0
3.301,5,1,1,1,1,500,3,483,475,0,0
3.302,6,1,1,1,1,498,1,480,442,0,0
3.303,7,1,1,1,1,498,1,482,500,0,0
3.304,8,1,1,1,1,490,1,485,560,0,0
3.305,9,1,1,1,1,507,1,506,526,0,0
3.306,10,1,1,1,1,516,1,489,518,0,0
3.307,11,1,1,1,1,512,1,488,542,0,0
3.308,12,1,1,1,1,502,1,501,559,0,0
3.309,13,1,1,1,1,510,3,536,528,0,0
3.31,14,1,1,1,1,519,1,549,500,0,0
3.311,15,1,1,1,1,533,1,574,501,0,0
3.312,0,1,1,1,1,545,1,563,517,0,0
3.313,1,1,1,1,1,539,1,544,516,0,0
3.314,2,1,1,1,1,520,1,505,510,0,0
3.315,3,1,1,1,1,504,1,480,514,0,0
3.316,4,1,1,1,1,502,1,470,516,0,0
3.317,5,1,1,1,1,497,3,477,504,0,0
3.318,6,1,1,1,1,500,1,519,477,0,0
3.319,7,1,1,1,1,506,1,534,467,0,0
3.32,8,1,1,1,1,521,1,550,471,0,0
3.321,9,1,1,1,1,527,1,537,488,0,0
3.322,10,1,1,1,1,524,1,508,515,0,0
3.323,11,1,1,1,1,510,1,463,521,0,0
3.324,12,1,1,1,1,486,1,426,571,0,0
3.325,13,1,1,1,1,491,2,438,533,0,0
3.326,14,1,1,1,1,481,1,441,486,0,0
3.327,15,1,1,1,1,491,1,470,473,0,0
3.328,0,1,1,1,1,489,1,505,491,0,0
3.329,1,1,1,1,1,516,1,540,513,0,0
3.33,2,1,1,1,1,534,1,547,504,0,0
3.331,3,1,1,1,1,539,1,553,492,0,0
3.332,4,1,1,1,1,526,1,557,485,0,0
3.333,5,1,1,1,1,518,2,566,494,0,0
3.334,6,1,1,1,1,532,1,565,556,0,0
3.335,7,1,1,1,1,520,1,553,523,0,0
3.336,8,1,1,1,1,516,1,579,527,0,0
3.337,9,1,1,1,1,526,1,615,539,0,0
3.338,10,1,1,1,1,536,1,588,531,0,0
3.339,11,1,1,1,1,537,1,534,521,0,0
3.34,12,1,1,1,1,526,1,469,494,0,0
3.341,13,1,1,1,1,518,2,435,523,0,0
3.342,14,1,1,1,1,483,1,402,502,0,0
3.343,15,1,1,1,1,457,1,390,462,0,0
3.344,0,1,1,1,1,464,1,414,467,0,0
3.345,1,1,1,1,1,450,1,426,478,0,0
3.346,2,1,1,1,1,480,1,466,482,0,0
3.347,3,1,1,1,1,522,1,496,513,0,0
3.348,4,1,1,1,1,545,2,517,545,0,0
3.349,5,1,1,1,1,504,3,539,566,0,0
3.35,6,1,1,1,1,495,1,553,505,0,0
3.351,7,1,1,1,1,519,1,561,487,0,0
3.352,8,1,1,1,1,561,1,605,499,0,0
3.353,9,1,1,1,1,558,1,618,507,0,0
3.354,10,1,1,1,1,556,1,591,509,0,0
3.355,11,1,1,1,1,542,1,531,503,0,0
3.356,12,1,1,1,1,534,1,479,511,0,0
3.357,13,1,1,1,1,492,3,403,511,0,0
3.358,14,1,1,1,1,473,1,378,526,0,0
3.359,15,1,1,1,1,455,1,366,528,0,0
3.36,0,1,1,1,1,455,1,414,528,0,0
3.361,1,1,1,1,1,464,1,462,548,0,0
3.362,2,1,1,1,1,475,1,501,509,0,0
3.363,3,1,1,1,1,492,1,531,485,0,0
3.364,4,1,1,1,1,541,2,579,492,0,0
3.365,5,1,1,1,1,542,3,572,507,0,0
3.366,6,1,1,1,1,537,1,560,508,0,0
3.367,7,1,1,1,1,535,1,551,491,0,0
3.368,8,1,1,1,1,519,0,534,508,0,0
3.369,9,1,1,1,1,513,1,532,504,0,0
3.37,10,1,1,1,1,515,1,535,514,0,0
3.371,11,1,1,1,1,526,1,548,517,0,0
3.372,12,1,1,1,1,534,1,571,516,0,0
3.373,13,1,1,1,1,537,3,585,484,0,0
3.374,14,1,1,1,1,535,1,568,473,0,0
3.375,15,1,1,1,1,537,1,545,485,0,0
3.376,0,1,1,1,1,523,0,507,487,0,0
3.377,1,1,1,1,1,517,1,480,488,0,0
3.378,2,1,1,1,1,504,1,453,575,0,0
3.379,3,1,1,1,1,485,1,446,555,0,0
3.38,4,1,1,1,1,475,1,460,519,0,0
3.381,5,1,1,1,1,477,3,458,505,0,0
3.382,6,1,1,1,1,491,1,462,511,0,0
3.383,7,1,1,1,1,498,1,486,499,0,0
3.384,8,1,1,1,1,524,0,509,519,0,0
3.385,9,1,1,1,1,530,1,526,524,0,0
3.386,10,1,1,1,1,523,1,541,500,0,0
3.387,11,1,1,1,1,528,1,546,482,0,0
3.388,12,1,1,1,1,537,1,556,490,0,0
3.389,13,1,1,1,1,520,3,523,522,0,0
3.39,14,1,1,1,1,511,1,494,480,0,0
3.391,15,1,1,1,1,487,1,472,504,0,0
3.392,0,1,1,1,1,475,1,446,534,0,0
3.393,1,1,1,1,1,470,1,432,530,0,0
3.394,2,1,1,1,1,484,1,469,511,0,0
3.395,3,1,1,1,1,506,1,502,491,0,0
3.396,4,1,1,1,1,526,1,526,493,0,0
3.397,5,1,1,1,1,524,3,531,511,0,0
3.398,6,1,1,1,1,525,1,537,519,0,0
3.399,7,1,1,1,1,521,1,536,503,0,0
3.4,8,1,1,1,1,524,1,545,506,0,0
3.401,9,1,1,1,1,528,1,543,504,0,0
3.402,10,1,1,1,1,521,1,540,497,0,0
3.403,11,1,1,1,1,522,1,544,504,0,0
3.404,12,1,1,1,1,531,1,561,507,0,0
3.405,13,1,1,1,1,535,3,592,505,0,0
3.406,14,1,1,1,1,535,1,612,483,0,0
3.407,15,1,1,1,1,534,1,569,469,0,0
3.408,0,1,1,1,1,534,1,514,479,0,0
3.409,1,1,1,1,1,523,1,461,483,0,0
3.41,2,1,1,1,1,488,1,409,494,0,0
3.411,3,1,1,1,1,455,0,365,525,0,0
3.412,4,1,1,1,1,438,1,366,564,0,0
3.413,5,1,1,1,1,430,3,415,596,0,0
3.414,6,1,1,1,1,471,1,487,534,0,0
3.415,7,1,1,1,1,509,1,542,551,0,0
3.416,8,1,1,1,1,525,1,546,516,0,0
3.417,9,1,1,1,1,526,1,543,505,0,0
3.418,10,1,1,1,1,537,1,568,503,0,0
3.419,11,1,1,1,1,545,1,575,498,0,0
3.42,12,1,1,1,1,536,1,556,504,0,0
3.421,13,1,1,1,1,536,3,546,486,0,0
3.422,14,1,1,1,1,532,1,540,483,0,0
3.423,15,1,1,1,1,524,1,515,494,0,0
3.424,0,1,1,1,1,524,1,519,507,0,0
3.425,1,1,1,1,1,522,1,535,511,0,0
3.426,2,1,1,1,1,514,1,523,514,0,0
3.427,3,1,1,1,1,504,0,502,512,0,0
3.428,4,1,1,1,1,497,1,493,503,0,0
3.429,5,1,1,1,1,494,3,498,508,0,0
3.43,6,1,1,1,1,504,1,496,504,0,0
3.431,7,1,1,1,1,516,1,461,494,0,0
3.432,8,1,1,1,1,512,1,464,484,0,0
3.433,9,1,1,1,1,495,1,457,481,0,0
3.434,10,1,1,1,1,496,1,466,487,0,0
3.435,11,1,1,1,1,489,1,483,526,0,0
3.436,12,1,1,1,1,501,1,528,552,0,0
3.437,13,1,1,1,1,512,1,580,563,0,0
3.438,14,1,1,1,1,535,1,605,551,0,0
3.439,15,1,1,1,1,548,1,569,527,0,0
3.44,0,1,1,1,1,525,1,512,470,0,0
3.441,1,1,1,1,1,534,1,475,474,0,0
3.442,2,1,1,1,1,509,1,454,523,0,0
3.443,3,1,1,1,1,455,1,419,521,0,0
3.444,4,1,1,1,1,469,1,455,484,0,0
3.445,5,1,1,1,1,497,1,507,494,0,0
3.446,6,1,1,1,1,525,1,561,496,0,0
3.447,7,1,1,1,1,549,1,624,494,0,0
3.448,8,1,1,1,1,562,1,636,497,0,0
3.449,9,1,1,1,1,554,1,583,501,0,0
3.45,10,1,1,1,1,527,1,513,508,0,0
3.451,11,1,1,1,1,507,1,464,524,0,0
3.452,12,1,1,1,1,483,1,423,532,0,0
3.453,13,1,1,1,1,444,3,371,525,0,0
3.454,14,1,1,1,1,441,1,393,502,0,0
3.455,15,1,1,1,1,471,1,432,488,0,0
3.456,0,1,1,1,1,503,1,479,486,0,0
3.457,1,1,1,1,1,521,1,499,499,0,0
3.458,2,1,1,1,1,514,1,519,517,0,0
3.459,3,1,1,1,1,516,1,533,507,0,0
3.46,4,1,1,1,1,537,1,561,504,0,0
3.461,5,1,1,1,1,549,3,576,519,0,0
3.462,6,1,1,1,1,539,1,562,492,0,0
3.463,7,1,1,1,1,518,1,543,497,0,0
3.464,8,1,1,1,1,514,1,539,516,0,0
3.465,9,1,1,1,1,508,1,512,527,0,0
3.466,10,1,1,1,1,510,1,499,518,0,0
3.467,11,1,1,1,1,506,0,519,532,0,0
3.468,12,1,1,1,1,524,1,589,514,0,0
3.469,13,1,1,1,1,537,3,616,489,0,0
3.47,14,1,1,1,1,527,1,572,496,0,0
3.471,15,1,1,1,1,528,1,526,505,0,0
3.472,0,1,1,1,1,529,1,493,534,0,0
3.473,1,1,1,1,1,519,1,415,528,0,0
3.474,2,1,1,1,1,493,1,370,506,0,0
3.475,3,1,1,1,1,469,1,383,494,0,0
3.476,4,1,1,1,1,459,1,431,462,0,0
3.477,5,1,1,1,1,485,3,512,508,0,0
3.478,6,1,1,1,1,503,1,538,519,0,0
3.479,7,1,1,1,1,522,1,562,534,0,0
3.48,8,1,1,1,1,532,1,569,539,0,0
3.481,9,1,1,1,1,525,1,544,508,0,0
3.482,10,1,1,1,1,514,1,516,517,0,0
3.483,11,1,1,1,1,503,1,497,505,0,0
3.484,12,1,1,1,1,517,1,507,529,0,0
3.485,13,1,1,1,1,496,3,500,493,0,0
3.486,14,1,1,1,1,499,1,508,501,0,0
3.487,15,1,1,1,1,514,1,519,504,0,0
3.488,0,1,1,1,1,520,1,523,504,0,0
3.489,1,1,1,1,1,523,1,525,504,0,0
3.49,2,1,1,1,1,522,1,531,490,0,0
3.491,3,1,1,1,1,527,1,556,504,0,0
3.492,4,1,1,1,1,527,1,551,508,0,0
3.493,5,1,1,1,1,521,3,548,512,0,0
3.494,6,1,1,1,1,523,1,544,501,0,0
3.495,7,1,1,1,1,542,1,586,499,0,0
3.496,8,1,1,1,1,529,1,562,509,0,0
3.497,9,1,1,1,1,532,1,523,491,0,0
3.498,10,1,1,1,1,527,1,475,467,0,0
